Data Set 1:Time(s),Data Set 1:EKG(mV),Data Set 1:Heart Rate(bpm)
0,-0.036998391151428223,87.114341735839844
0.0025000000000000001,-0.028920769691467285,
0.0050000000000000001,-0.01721302792429924,
0.0074999999999999997,-0.0040628514252603054,
0.01,0.0081737842410802841,
0.012500000000000001,0.017261108383536339,
0.014999999999999999,0.020578702911734581,
0.017500000000000002,0.014376243576407433,
0.02,-0.0078852977603673935,
0.022499999999999999,-0.020025771111249924,
0.025000000000000001,-0.030170878395438194,
0.0275,-0.036830108612775803,
0.029999999999999999,-0.037743650376796722,
0.032500000000000001,-0.032791297882795334,
0.035000000000000003,-0.025795500725507736,
0.037499999999999999,-0.018270811066031456,
0.040000000000000001,-0.0071160001680254936,
0.042500000000000003,-0.0054091215133666992,
0.044999999999999998,-0.0066351890563964844,
0.047500000000000001,-0.01060187816619873,
0.050000000000000003,-0.024040540680289268,
0.052499999999999998,-0.031805634498596191,
0.055,-0.039330326020717621,
0.057500000000000002,-0.045941472053527832,
0.059999999999999998,-0.054956674575805664,
0.0625,-0.057024162262678146,
0.065000000000000002,-0.057264566421508789,
0.067500000000000004,-0.055653851479291916,
0.070000000000000007,-0.04723966121673584,
0.072499999999999995,-0.040772758424282074,
0.074999999999999997,-0.03339231014251709,
0.077499999999999999,-0.025747418403625488,
0.080000000000000002,-0.012549161911010742,
0.082500000000000004,-0.0084141893312335014,
0.085000000000000006,-0.0064428648911416531,
0.087499999999999994,-0.0088709592819213867,
0.089999999999999997,-0.012308756820857525,
0.092499999999999999,-0.016203325241804123,
0.095000000000000001,-0.019809406250715256,
0.097500000000000003,-0.022429823875427246,
0.10000000000000001,-0.023391446098685265,
0.10249999999999999,-0.021949013695120811,
0.105,-0.01966516301035881,
0.1075,-0.016996663063764572,
0.11,-0.012380878441035748,
0.1125,-0.010746121406555176,
0.115,-0.0096402568742632866,
0.11749999999999999,-0.00891904067248106,
0.12,-0.0080054998397827148,
0.1225,-0.0077891349792480469,
0.125,-0.0077410540543496609,
0.1275,-0.0080054998397827148,
0.13,-0.010241270065307617,
0.13250000000000001,-0.012356838211417198,
0.13500000000000001,-0.015265743248164654,
0.13750000000000001,-0.023030837997794151,
0.14000000000000001,-0.027454297989606857,
0.14249999999999999,-0.031757555902004242,
0.14499999999999999,-0.035411715507507324,
0.14749999999999999,-0.037815771996974945,
0.14999999999999999,-0.036709904670715332,
0.1525,-0.032334528863430023,
0.155,-0.025410851463675499,
0.1575,-0.0055774054490029812,
0.16,0.0055774054490029812,
0.16250000000000001,0.016179284080862999,
0.16500000000000001,0.025218527764081955,
0.16750000000000001,0.035940609872341156,
0.17000000000000001,0.037118595093488693,
0.17249999999999999,0.035796366631984711,
0.17499999999999999,0.032430689781904221,
0.17749999999999999,0.021876892074942589,
0.17999999999999999,0.015698473900556564,
0.1825,0.0093758106231689453,
0.185,0.0032695136032998562,
0.1875,-0.0073804459534585476,
0.19,-0.011323094367980957,
0.1925,-0.013895432464778423,
0.19500000000000001,-0.014857053756713867,
0.19750000000000001,-0.01168370246887207,
0.20000000000000001,-0.0080054998397827148,
0.20250000000000001,-0.0035820405464619398,
0.20499999999999999,0.00096162164118140936,
0.20749999999999999,0.0078852977603673935,
0.20999999999999999,0.009447932243347168,
0.21249999999999999,0.0096402568742632866,
0.215,0.0085343923419713974,
0.2175,0.0038224458694458008,
0.22,0.00091354054166004062,
0.2225,-0.0020194053649902344,
0.22500000000000001,-0.004735986702144146,
0.22750000000000001,-0.0092315673828125,
0.23000000000000001,-0.010938446037471294,
0.23250000000000001,-0.012212594971060753,
0.23499999999999999,-0.013078054413199425,
0.23749999999999999,-0.013582905754446983,
0.23999999999999999,-0.013294419273734093,
0.24249999999999999,-0.012717446312308311,
0.245,-0.011876027099788189,
0.2475,-0.009351770393550396,
0.25,-0.0075006484985351562,
0.2525,-0.0051206350326538086,
0.255,-0.0021876893006265163,
0.25750000000000001,0.0051927566528320312,
0.26000000000000001,0.0092075271531939507,
0.26250000000000001,0.013005932793021202,
0.26500000000000001,0.016323527321219444,
0.26750000000000002,0.020410418510437012,
0.27000000000000002,0.021011432632803917,
0.27250000000000002,0.02074698731303215,
0.27500000000000002,0.019761323928833008,
0.27750000000000002,0.016515851020812988,
0.28000000000000003,0.014592608436942101,
0.28249999999999997,0.012645324692130089,
0.28499999999999998,0.010842284187674522,
0.28749999999999998,0.0092796487733721733,
0.28999999999999998,0.0072842836380004883,
0.29249999999999998,0.0071640810929238796,
0.29499999999999998,0.0075968108139932156,
0.29749999999999999,0.010121067985892296,
0.29999999999999999,0.011900067329406738,
0.30249999999999999,0.01384735107421875,
0.30499999999999999,0.016035040840506554,
0.3075,0.021323960274457932,
0.31,0.024978121742606163,
0.3125,0.029641985893249512,
0.315,0.035291515290737152,
0.3175,0.048754215240478516,
0.32000000000000001,0.055341325700283051,
0.32250000000000001,0.060774486511945724,
0.32500000000000001,0.064308449625968933,
0.32750000000000001,0.063394904136657715,
0.33000000000000002,0.058827202767133713,
0.33250000000000002,0.05197564885020256,
0.33500000000000002,0.043561458587646484,
0.33750000000000002,0.025386810302734375,
0.34000000000000002,0.017020702362060547,
0.34250000000000003,0.0098085403442382812,
0.34499999999999997,0.0040147705003619194,
0.34749999999999998,-0.0036301217041909695,
0.34999999999999998,-0.0057697296142578125,
0.35249999999999998,-0.007091959472745657,
0.35499999999999998,-0.0079333782196044922,
0.35749999999999998,-0.0088950004428625107,
0.35999999999999999,-0.009447932243347168,
0.36249999999999999,-0.010193189606070518,
0.36499999999999999,-0.010962486267089844,
0.36749999999999999,-0.011587540619075298,
0.37,-0.010986527428030968,
0.3725,-0.0089430809020996094,
0.375,-0.0056495270691812038,
0.3775,0.0036301217041909695,
0.38,0.0079814596101641655,
0.38250000000000001,0.010529756546020508,
0.38500000000000001,0.010048946365714073,
0.38750000000000001,-0.004399418830871582,
0.39000000000000001,-0.019232433289289474,
0.39250000000000002,-0.038681231439113617,
0.39500000000000002,-0.061591863632202148,
0.39750000000000002,-0.10950466245412827,
0.40000000000000002,-0.12936215102672577,
0.40250000000000002,-0.14263252913951874,
0.40500000000000003,-0.14633476734161377,
0.40749999999999997,-0.1152503490447998,
0.40999999999999998,-0.076977811753749847,
0.41249999999999998,-0.022766392678022385,
0.41499999999999998,0.046470366418361664,
0.41749999999999998,0.22021135687828064,
0.41999999999999998,0.31658989191055298,
0.42249999999999999,0.41219910979270935,
0.42499999999999999,0.50114911794662476,
0.42749999999999999,0.6353914737701416,
0.42999999999999999,0.67092341184616089,
0.4325,0.68094831705093384,
0.435,0.66426420211791992,
0.4375,0.55557692050933838,
0.44,0.4704253077507019,
0.4425,0.37173888087272644,
0.44500000000000001,0.2661287784576416,
0.44750000000000001,0.060774486511945724,
0.45000000000000001,-0.026781162247061729,
0.45250000000000001,-0.098157525062561035,
0.45500000000000002,-0.1508784294128418,
0.45750000000000002,-0.18427073955535889,
0.46000000000000002,-0.19898355007171631,
0.46250000000000002,-0.18650650978088379,
0.46500000000000002,-0.16590377688407898,
0.46750000000000003,-0.11541863530874252,
0.46999999999999997,-0.091209813952445984,
0.47249999999999998,-0.070030093193054199,
0.47499999999999998,-0.052576661109924316,
0.47749999999999998,-0.028031270951032639,
0.47999999999999998,-0.01983344554901123,
0.48249999999999998,-0.01353482436388731,
0.48499999999999999,-0.0084863109514117241,
0.48749999999999999,-0.0010577838402241468,
0.48999999999999999,0.0017549594631418586,
0.49249999999999999,0.0040628514252603054,
0.495,0.0058418512344360352,
0.4975,0.0082218647003173828,
0.5,0.0087988376617431641,
0.50249999999999995,0.009135405533015728,
0.505,0.009447932243347168,
0.50749999999999995,0.010986527428030968,
0.51000000000000001,0.012909770011901855,
0.51249999999999996,0.01601099967956543,
0.51500000000000001,0.020338296890258789,
0.51749999999999996,0.032382607460021973,
0.52000000000000002,0.039162039756774902,
0.52249999999999996,0.045652985572814941,
0.52500000000000002,0.051278471946716309,
0.52749999999999997,0.058081947267055511,
0.53000000000000003,0.059139728546142578,
0.53249999999999997,0.058995485305786133,
0.53500000000000003,0.058057904243469238,
0.53749999999999998,0.056928001344203949,
0.54000000000000004,0.055822134017944336,
0.54249999999999998,0.056182742118835449,
0.54500000000000004,0.05721648782491684,
0.54749999999999999,0.060269635170698166,
0.55000000000000004,0.061928432434797287,
0.55249999999999999,0.063467025756835938,
0.55500000000000005,0.064741179347038269,
0.5575,0.066880784928798676,
0.56000000000000005,0.067794322967529297,
0.5625,0.068731904029846191,
0.56499999999999995,0.069909892976284027,
0.5675,0.073443852365016937,
0.56999999999999995,0.076280638575553894,
0.57250000000000001,0.080079041421413422,
0.57499999999999996,0.084815025329589844,
0.57750000000000001,0.096955500543117523,
0.57999999999999996,0.10375897586345673,
0.58250000000000002,0.11051436513662338,
0.58499999999999996,0.11690914630889893,
0.58750000000000002,0.12722253799438477,
0.58999999999999997,0.13104498386383057,
0.59250000000000003,0.13407409191131592,
0.59499999999999997,0.13647815585136414,
0.59750000000000003,0.14056503772735596,
0.59999999999999998,0.14258444309234619,
0.60250000000000004,0.14477214217185974,
0.60499999999999998,0.14734447002410889,
0.60750000000000004,0.15405178070068359,
0.60999999999999999,0.15859544277191162,
0.61250000000000004,0.16414880752563477,
0.61499999999999999,0.1707359254360199,
0.61750000000000005,0.18662671744823456,
0.62,0.1952572762966156,
0.62250000000000005,0.20369550585746765,
0.625,0.2115807980298996,
0.62749999999999995,0.22415399551391602,
0.63,0.22867362201213837,
0.63249999999999995,0.23203930258750916,
0.63500000000000001,0.23439526557922363,
0.63749999999999996,0.23665508627891541,
0.64000000000000001,0.23663103580474854,
0.64249999999999996,0.23581366240978241,
0.64500000000000002,0.23425102233886719,
0.64749999999999996,0.22925059497356415,
0.65000000000000002,0.22641381621360779,
0.65249999999999997,0.22384147346019745,
0.65500000000000003,0.22179803252220154,
0.65749999999999997,0.2199709415435791,
0.66000000000000003,0.2197786271572113,
0.66249999999999998,0.21939396858215332,
0.66500000000000004,0.2182881087064743,
0.66749999999999998,0.21134039759635925,
0.67000000000000004,0.20482540130615234,
0.67249999999999999,0.19621889293193817,
0.67500000000000004,0.18568913638591766,
0.67749999999999999,0.16073505580425262,
0.68000000000000005,0.14724831283092499,
0.6825,0.1337134838104248,
0.68500000000000005,0.1205633133649826,
0.6875,0.096330448985099792,
0.68999999999999995,0.085704527795314789,
0.6925,0.076184473931789398,
0.69499999999999995,0.067722201347351074,
0.69750000000000001,0.053658485412597656,
0.69999999999999996,0.047552190721035004,
0.70250000000000001,0.041710339486598969,
0.70499999999999996,0.035964649170637131,
0.70750000000000002,0.024136703461408615,
0.70999999999999996,0.018126567825675011,
0.71250000000000002,0.01216451358050108,
0.71499999999999997,0.0063226623460650444,
0.71750000000000003,-0.0047119460068643093,
0.71999999999999997,-0.0099768247455358505,
0.72250000000000003,-0.015097459778189659,
0.72499999999999998,-0.019953649491071701,
0.72750000000000004,-0.028127431869506836,
0.72999999999999998,-0.030651688575744629,
0.73250000000000004,-0.031589269638061523,
0.73499999999999999,-0.030819972977042198,
0.73750000000000004,-0.02428094670176506,
0.73999999999999999,-0.01954495906829834,
0.74250000000000005,-0.014833013527095318,
0.745,-0.010962486267089844,
0.74750000000000005,-0.0083420677110552788,
0.75,-0.0099527835845947266,
0.75249999999999995,-0.013174216262996197,
0.755,-0.017429392784833908,
0.75749999999999995,-0.025771459564566612,
0.76000000000000001,-0.028560161590576172,
0.76249999999999996,-0.029906433075666428,
0.76500000000000001,-0.029641985893249512,
0.76749999999999996,-0.02553105354309082,
0.77000000000000002,-0.022429823875427246,
0.77249999999999996,-0.019280513748526573,
0.77500000000000002,-0.016539892181754112,
0.77749999999999997,-0.013318459503352642,
0.78000000000000003,-0.013150176033377647,
0.78249999999999997,-0.013871392235159874,
0.78500000000000003,-0.015193621627986431,
0.78749999999999998,-0.018511217087507248,
0.79000000000000004,-0.019641121849417686,
0.79249999999999998,-0.020025771111249924,
0.79500000000000004,-0.019569000229239464,
0.79749999999999999,-0.016347568482160568,
0.80000000000000004,-0.01430412195622921,
0.80249999999999999,-0.012501081451773643,
0.80500000000000005,-0.011226932518184185,
0.8075,-0.011034607887268066,
0.81000000000000005,-0.011803905479609966,
0.8125,-0.012717446312308311,
0.81499999999999995,-0.013462702743709087,
0.8175,-0.013438662514090538,
0.81999999999999995,-0.012693405151367188,
0.82250000000000001,-0.011731783859431744,
0.82499999999999996,-0.010818243026733398,
0.82750000000000001,-0.010457634925842285,
0.82999999999999996,-0.011130770668387413,
0.83250000000000002,-0.012236635200679302,
0.83499999999999996,-0.013510784134268761,
0.83750000000000002,-0.015145540237426758,
0.83999999999999997,-0.015097459778189659,
0.84250000000000003,-0.014280080795288086,
0.84499999999999997,-0.012645324692130089,
0.84750000000000003,-0.0076208515092730522,
0.84999999999999998,-0.0044234595261514187,
0.85250000000000004,-0.00098566222004592419,
0.85499999999999998,0.0024280946236103773,
0.85750000000000004,0.0085584325715899467,
0.85999999999999999,0.010722081176936626,
0.86250000000000004,0.012044310569763184,
0.86499999999999999,0.012525121681392193,
0.86750000000000005,0.01105864904820919,
0.87,0.0097364187240600586,
0.87250000000000005,0.0085343923419713974,
0.875,0.0076929731294512749,
0.87749999999999995,0.0080535812303423882,
0.88,0.0089911622926592827,
0.88249999999999995,0.010121067985892296,
0.88500000000000001,0.011106729507446289,
0.88749999999999996,0.01105864904820919,
0.89000000000000001,0.0097845001146197319,
0.89249999999999996,0.0076689324341714382,
0.89500000000000002,0.004832148551940918,
0.89749999999999996,-0.0016347568016499281,
0.90000000000000002,-0.0047600269317626953,
0.90249999999999997,-0.0074044866487383842,
0.90500000000000003,-0.0092075271531939507,
0.90749999999999997,-0.0094719734042882919,
0.91000000000000003,-0.0073564052581787109,
0.91249999999999998,-0.0035820405464619398,
0.91500000000000004,0.0016587972640991211,
0.91749999999999998,0.015241703018546104,
0.92000000000000004,0.022237500175833702,
0.92249999999999999,0.028343796730041504,
0.92500000000000004,0.032863419502973557,
0.92749999999999999,0.035219393670558929,
0.93000000000000005,0.033007662743330002,
0.9325,0.028944810852408409,
0.93500000000000005,0.023583769798278809,
0.9375,0.011924108490347862,
0.93999999999999995,0.006827513687312603,
0.9425,0.0028367838822305202,
0.94499999999999995,0.000312527030473575,
0.94750000000000001,0,
0.94999999999999996,0.002307891845703125,
0.95250000000000001,0.0060341758653521538,
0.95499999999999996,0.010842284187674522,
0.95750000000000002,0.02199709415435791,
0.95999999999999996,0.026997527107596397,
0.96250000000000002,0.030699770897626877,
0.96499999999999997,0.032623015344142914,
0.96750000000000003,0.030002593994140625,
0.96999999999999997,0.025843581184744835,
0.97250000000000003,0.020434459671378136,
0.97499999999999998,0.014496445655822754,
0.97750000000000004,0.0044715404510498047,
0.97999999999999998,0.0016347568016499281,
0.98250000000000004,0.00079333782196044922,
0.98499999999999999,0.0021876893006265163,
0.98750000000000004,0.010938446037471294,
0.98999999999999999,0.017790000885725021,
0.99250000000000005,0.025675296783447266,
0.995,0.033945243805646896,
0.99750000000000005,0.049379270523786545,
1,0.055173039436340332,85.889572143554688
1.0024999999999999,0.058995485305786133,
1.0049999999999999,0.060630243271589279,
1.0075000000000001,0.057048201560974121,
1.01,0.052552621811628342,
1.0125,0.046999257057905197,
1.0149999999999999,0.040868919342756271,
1.0175000000000001,0.029185216873884201,
1.02,0.024136703461408615,
1.0225,0.01966516301035881,
1.0249999999999999,0.015770595520734787,
1.0275000000000001,0.0087026758119463921,
1.03,0.0053129596635699272,
1.0325,0.0018511216621845961,
1.0349999999999999,-0.0018270810833200812,
1.0375000000000001,-0.0097604598850011826,
1.04,-0.014111797325313091,
1.0425,-0.018511217087507248,
1.0449999999999999,-0.022670229896903038,
1.0475000000000001,-0.028656324371695518,
1.05,-0.029305418953299522,
1.0525,-0.027790864929556847,
1.0549999999999999,-0.024112662300467491,
1.0575000000000001,-0.011779865249991417,
1.0600000000000001,-0.0052889189682900906,
1.0625,-0.00052889192011207342,
1.0649999999999999,0.00098566222004592419,
1.0674999999999999,-0.010938446037471294,
1.0700000000000001,-0.025290649384260178,
1.0725,-0.044643282890319824,
1.075,-0.067602001130580902,
1.0774999999999999,-0.11503398418426514,
1.0800000000000001,-0.13405005633831024,
1.0825,-0.14599820971488953,
1.085,-0.14804165065288544,
1.0874999999999999,-0.1138560026884079,
1.0900000000000001,-0.074838206171989441,
1.0925,-0.020867189392447472,
1.095,0.046975217759609222,
1.0974999999999999,0.21482627093791962,
1.1000000000000001,0.30731022357940674,
1.1025,0.39921721816062927,
1.105,0.48513811826705933,
1.1074999999999999,0.61728894710540771,
1.1100000000000001,0.65409505367279053,
1.1125,0.66669225692749023,
1.115,0.65327763557434082,
1.1174999999999999,0.55040818452835083,
1.1200000000000001,0.46621820330619812,
1.1225000000000001,0.36659419536590576,
1.125,0.25797903537750244,
1.1274999999999999,0.041974782943725586,
1.1299999999999999,-0.051711201667785645,
1.1325000000000001,-0.12847265601158142,
1.135,-0.18501600623130798,
1.1375,-0.23429910838603973,
1.1399999999999999,-0.23074111342430115,
1.1425000000000001,-0.21345596015453339,
1.145,-0.18715560436248779,
1.1475,-0.12664556503295898,
1.1499999999999999,-0.099720165133476257,
1.1525000000000001,-0.077939435839653015,
1.155,-0.061976514756679535,
1.1575,-0.044547121971845627,
1.1599999999999999,-0.040436189621686935,
1.1625000000000001,-0.037383042275905609,
1.165,-0.034041404724121094,
1.1675,-0.024088621139526367,
1.1699999999999999,-0.017164945602416992,
1.1725000000000001,-0.0094719734042882919,
1.175,-0.0016587972640991211,
1.1775,0.012020270340144634,
1.1799999999999999,0.016876459121704102,
1.1825000000000001,0.020097892731428146,
1.1850000000000001,0.021876892074942589,
1.1875,0.022237500175833702,
1.1899999999999999,0.021804770454764366,
1.1924999999999999,0.021540325134992599,
1.1950000000000001,0.021660527214407921,
1.1975,0.023439526557922363,
1.2,0.024665594100952148,
1.2024999999999999,0.025795500725507736,
1.2050000000000001,0.026684999465942383,
1.2075,0.027310054749250412,
1.21,0.027430256828665733,
1.2124999999999999,0.027718743309378624,
1.2150000000000001,0.028367837890982628,
1.2175,0.031180581077933311,
1.22,0.033007662743330002,
1.2224999999999999,0.034786663949489594,
1.2250000000000001,0.036373339593410492,
1.2275,0.038416784256696701,
1.23,0.039258204400539398,
1.2324999999999999,0.040364068001508713,
1.2350000000000001,0.042046904563903809,
1.2375,0.04827340692281723,
1.24,0.052696865051984787,
1.2424999999999999,0.057697296142578125,
1.2450000000000001,0.062914095818996429,
1.2475000000000001,0.072386071085929871,
1.25,0.07630467414855957,
1.2524999999999999,0.079622268676757812,
1.2549999999999999,0.082386933267116547,
1.2575000000000001,0.087122917175292969,
1.26,0.089238487184047699,
1.2625,0.091257892549037933,
1.2649999999999999,0.093181133270263672,
1.2675000000000001,0.096378527581691742,
1.27,0.097748838365077972,
1.2725,0.09904702752828598,
1.2749999999999999,0.10036925971508026,
1.2775000000000001,0.10383109748363495,
1.28,0.1062111109495163,
1.2825,0.1092882975935936,
1.2849999999999999,0.11327902972698212,
1.2875000000000001,0.12472232431173325,
1.29,0.13258358836174011,
1.2925,0.14186322689056396,
1.2949999999999999,0.15232086181640625,
1.2975000000000001,0.17501513659954071,
1.3,0.18576125800609589,
1.3025,0.19516110420227051,
1.3049999999999999,0.20268580317497253,
1.3075000000000001,0.21117210388183594,
1.3100000000000001,0.21268665790557861,
1.3125,0.21314343810081482,
1.3149999999999999,0.21328768134117126,
1.3174999999999999,0.21535515785217285,
1.3200000000000001,0.21785537898540497,
1.3225,0.22129318118095398,
1.325,0.22540411353111267,
1.3274999999999999,0.23314516246318817,
1.3300000000000001,0.23574154078960419,
1.3325,0.23687145113945007,
1.335,0.23612618446350098,
1.3374999999999999,0.22874574363231659,
1.3400000000000001,0.22199034690856934,
1.3425,0.21340787410736084,
1.345,0.20328681170940399,
1.3474999999999999,0.17991940677165985,
1.3500000000000001,0.16763469576835632,
1.3525,0.15549421310424805,
1.355,0.14371435344219208,
1.3574999999999999,0.12171725928783417,
1.3600000000000001,0.11113941669464111,
1.3625,0.10053753852844238,
1.365,0.089767381548881531,
1.3674999999999999,0.067313514649868011,
1.3700000000000001,0.0561346635222435,
1.3725000000000001,0.045436620712280273,
1.375,0.035604041069746017,
1.3774999999999999,0.019761323928833008,
1.3799999999999999,0.013727148994803429,
1.3825000000000001,0.0087507572025060654,
1.385,0.0045917434617877007,
1.3875,-0.0025963783264160156,
1.3899999999999999,-0.0058178110048174858,
1.3925000000000001,-0.0087988376617431641,
1.395,-0.011419257149100304,
1.3975,-0.014977256767451763,
1.3999999999999999,-0.015938878059387207,
1.4025000000000001,-0.016443729400634766,
1.405,-0.016660094261169434,
1.4075,-0.017116865143179893,
1.4099999999999999,-0.017597675323486328,
1.4125000000000001,-0.018391013145446777,
1.415,-0.019569000229239464,
1.4175,-0.023006796836853027,
1.4199999999999999,-0.025314688682556152,
1.4225000000000001,-0.027935108169913292,
1.425,-0.030699770897626877,
1.4275,-0.035892527550458908,
1.4299999999999999,-0.037623446434736252,
1.4325000000000001,-0.038464866578578949,
1.4350000000000001,-0.03829658031463623,
1.4375,-0.035171311348676682,
1.4399999999999999,-0.032959580421447754,
1.4424999999999999,-0.03094017505645752,
1.4450000000000001,-0.029497742652893066,
1.4475,-0.029834311455488205,
1.45,-0.031517148017883301,
1.4524999999999999,-0.033921204507350922,
1.4550000000000001,-0.036709904670715332,
1.4575,-0.041518013924360275,
1.46,-0.043032567948102951,
1.4624999999999999,-0.043753784149885178,
1.4650000000000001,-0.043585501611232758,
1.4675,-0.041109323501586914,
1.47,-0.038945674896240234,
1.4724999999999999,-0.036349296569824219,
1.4750000000000001,-0.033584635704755783,
1.4775,-0.028439959511160851,
1.48,-0.026805203408002853,
1.4824999999999999,-0.026083987206220627,
1.4850000000000001,-0.026372473686933517,
1.4875,-0.029617946594953537,
1.49,-0.031733512878417969,
1.4924999999999999,-0.033488474786281586,
1.4950000000000001,-0.034377973526716232,
1.4975000000000001,-0.031997960060834885,
1.5,-0.028752487152814865,
1.5024999999999999,-0.024473270401358604,
1.5049999999999999,-0.019593041390180588,
1.5075000000000001,-0.010481676086783409,
1.51,-0.0070679187774658203,
1.5125,-0.0048802299425005913,
1.5149999999999999,-0.0040868921205401421,
1.5175000000000001,-0.0064669055864214897,
1.52,-0.009447932243347168,
1.5225,-0.013294419273734093,
1.5249999999999999,-0.017549594864249229,
1.5275000000000001,-0.025627216324210167,
1.53,-0.028295716270804405,
1.5325,-0.029449662193655968,
1.5349999999999999,-0.028848648071289062,
1.5375000000000001,-0.022141337394714355,
1.54,-0.01675625704228878,
1.5425,-0.010722081176936626,
1.5449999999999999,-0.004519621841609478,
1.5475000000000001,0.0060582160949707031,
1.55,0.0099768247455358505,
1.5525,0.012861689552664757,
1.5549999999999999,0.014712810516357422,
1.5575000000000001,0.015914838761091232,
1.5600000000000001,0.015265743248164654,
1.5625,0.013823310844600201,
1.5649999999999999,0.011587540619075298,
1.5674999999999999,0.0049523515626788139,
1.5700000000000001,0.0010577838402241468,
1.5725,-0.0029089055024087429,
1.575,-0.006611148826777935,
1.5774999999999999,-0.011900067329406738,
1.5800000000000001,-0.013270378112792969,
1.5825,-0.013727148994803429,
1.585,-0.01322229765355587,
1.5874999999999999,-0.0098325815051794052,
1.5900000000000001,-0.0070679187774658203,
1.5925,-0.0038224458694458008,
1.595,-0.00036060810089111328,
1.5974999999999999,0.0059620542451739311,
1.6000000000000001,0.0078131761401891708,
1.6025,0.0083420677110552788,
1.605,0.0073564052581787109,
1.6074999999999999,0.00098566222004592419,
1.6100000000000001,-0.0034618377685546875,
1.6125,-0.0079333782196044922,
1.615,-0.011779865249991417,
1.6174999999999999,-0.015361905097961426,
1.6200000000000001,-0.014760891906917095,
1.6225000000000001,-0.012621283531188965,
1.625,-0.009255608543753624,
1.6274999999999999,-0.00079333782196044922,
1.6299999999999999,0.0036060810089111328,
1.6325000000000001,0.0076448917388916016,
1.635,0.01108268927782774,
1.6375,0.015554229728877544,
1.6399999999999999,0.016227364540100098,
1.6425000000000001,0.015818675979971886,
1.645,0.014376243576407433,
1.6475,0.009135405533015728,
1.6499999999999999,0.0061303377151489258,
1.6525000000000001,0.0034137568436563015,
1.655,0.0013222297420725226,
1.6575,0.00019232432532589883,
1.6599999999999999,0.001033743261359632,
1.6625000000000001,0.0026444594841450453,
1.665,0.004735986702144146,
1.6675,0.0091113653033971786,
1.6699999999999999,0.011178851127624512,
1.6725000000000001,0.013102094642817974,
1.675,0.014857053756713867,
1.6775,0.018487175926566124,
1.6799999999999999,0.020386379212141037,
1.6825000000000001,0.02245386503636837,
1.6850000000000001,0.024713676422834396,
1.6875,0.029954513534903526,
1.6899999999999999,0.033079784363508224,
1.6924999999999999,0.036517582833766937,
1.6950000000000001,0.04012366384267807,
1.6975,0.046855013817548752,
1.7,0.049114823341369629,
1.7024999999999999,0.050172608345746994,
1.7050000000000001,0.049739878624677658,
1.7075,0.044138431549072266,
1.71,0.039474569261074066,
1.7124999999999999,0.034017365425825119,
1.7150000000000001,0.028175514191389084,
1.7175,0.016732215881347656,
1.72,0.011323094367980957,
1.7224999999999999,0.0061784191057085991,
1.7250000000000001,0.0013462703209370375,
1.7275,-0.0074766082689166069,
1.73,-0.011034607887268066,
1.7324999999999999,-0.013751189224421978,
1.7350000000000001,-0.015458067879080772,
1.7375,-0.015530189499258995,
1.74,-0.01430412195622921,
1.7424999999999999,-0.012597243301570415,
1.7450000000000001,-0.010746121406555176,
1.7475000000000001,-0.0080535812303423882,
1.75,-0.0073323650285601616,
1.7524999999999999,-0.007091959472745657,
1.7549999999999999,-0.0073083243332803249,
1.7575000000000001,-0.0094238920137286186,
1.76,-0.011924108490347862,
1.7625,-0.015962919220328331,
1.7649999999999999,-0.021973054856061935,
1.7675000000000001,-0.041493974626064301,
1.77,-0.054956674575805664,
1.7725,-0.070342622697353363,
1.7749999999999999,-0.086786352097988129,
1.7775000000000001,-0.11717359721660614,
1.78,-0.12772738933563232,
1.7825,-0.13239125907421112,
1.7849999999999999,-0.12897750735282898,
1.7875000000000001,-0.08986353874206543,
1.79,-0.05077362060546875,
1.7925,0.0024040541611611843,
1.7949999999999999,0.069212719798088074,
1.7975000000000001,0.23639063537120819,
1.8,0.32964390516281128,
1.8025,0.42282503843307495,
1.8049999999999999,0.51011621952056885,
1.8075000000000001,0.64313256740570068,
1.8100000000000001,0.67847216129302979,
1.8125,0.68796813488006592,
1.8149999999999999,0.67003393173217773,
1.8174999999999999,0.55569708347320557,
1.8200000000000001,0.46617013216018677,
1.8225,0.36257943511009216,
1.825,0.25206506252288818,
1.8274999999999999,0.039570730179548264,
1.8300000000000001,-0.049066744744777679,
1.8325,-0.11952956765890121,
1.835,-0.16936561465263367,
1.8374999999999999,-0.20787855982780457,
1.8400000000000001,-0.20167610049247742,
1.8425,-0.18391013145446777,
1.845,-0.1592685878276825,
1.8474999999999999,-0.10640343278646469,
1.8500000000000001,-0.084214016795158386,
1.8525,-0.06707310676574707,
1.855,-0.055269204080104828,
1.8574999999999999,-0.044523082673549652,
1.8600000000000001,-0.043152771890163422,
1.8625,-0.042647920548915863,
1.865,-0.041830539703369141,
1.8674999999999999,-0.036469500511884689,
1.8700000000000001,-0.031156539916992188,
1.8725000000000001,-0.024208825081586838,
1.875,-0.016035040840506554,
1.8774999999999999,0.0018030405044555664,
1.8799999999999999,0.0099527835845947266,
1.8825000000000001,0.01675625704228878,
1.885,0.021732648834586143,
1.8875,0.025386810302734375,
1.8899999999999999,0.024425189942121506,
1.8925000000000001,0.022141337394714355,
1.895,0.019040107727050781,
1.8975,0.012861689552664757,
1.8999999999999999,0.010553797706961632,
1.9025000000000001,0.009135405533015728,
1.905,0.008822878822684288,
1.9075,0.011323094367980957,
1.9099999999999999,0.014159878715872765,
1.9125000000000001,0.017741918563842773,
1.915,0.021852850914001465,
1.9175,0.030267041176557541,
1.9199999999999999,0.033704839646816254,
1.9225000000000001,0.036253135651350021,
1.925,0.037887893617153168,
1.9275,0.038897596299648285,
1.9299999999999999,0.039258204400539398,
1.9325000000000001,0.040267907083034515,
1.9350000000000001,0.042383473366498947,
1.9375,0.051038067787885666,
1.9399999999999999,0.05721648782491684,
1.9424999999999999,0.064140163362026215,
1.9450000000000001,0.071232125163078308,
1.9475,0.083564922213554382,
1.95,0.088228784501552582,
1.9524999999999999,0.091618500649929047,
1.9550000000000001,0.093854270875453949,
1.9575,0.095585189759731293,
1.96,0.095392867922782898,
1.9624999999999999,0.094815894961357117,
1.9650000000000001,0.094070635735988617,
1.9675,0.092892646789550781,
1.97,0.093133054673671722,
1.9724999999999999,0.094238921999931335,
1.9750000000000001,0.096402570605278015,
1.9775,0.10414361953735352,
1.98,0.10931234061717987,
1.9824999999999999,0.11498590558767319,
1.9850000000000001,0.1208517998456955,
1.9875,0.13183832168579102,
1.99,0.13683876395225525,
1.9924999999999999,0.14143049716949463,
1.9950000000000001,0.14578184485435486,
1.9975000000000001,0.15441238880157471,
2,0.15888392925262451,86.021499633789062
2.0024999999999999,0.16364395618438721,
2.0049999999999999,0.16881267726421356,
2.0074999999999998,0.18049637973308563,
2.0099999999999998,0.18722772598266602,
2.0125000000000002,0.19446393847465515,
2.0150000000000001,0.20198862254619598,
2.0175000000000001,0.21662931144237518,
2.02,0.22266349196434021,
2.0225,0.22732734680175781,
2.0249999999999999,0.23028433322906494,
2.0274999999999999,0.23093342781066895,
2.0299999999999998,0.22922655940055847,
2.0325000000000002,0.22667825222015381,
2.0350000000000001,0.22367319464683533,
2.0375000000000001,0.21720628440380096,
2.04,0.21345596015453339,
2.0425,0.20903250575065613,
2.0449999999999999,0.20347914099693298,
2.0474999999999999,0.18766045570373535,
2.0499999999999998,0.17725090682506561,
2.0525000000000002,0.16537487506866455,
2.0550000000000002,0.15229682624340057,
2.0575000000000001,0.12443383783102036,
2.0600000000000001,0.11027395725250244,
2.0625,0.096426606178283691,
2.0649999999999999,0.083108149468898773,
2.0674999999999999,0.058682959526777267,
2.0699999999999998,0.048008959740400314,
2.0724999999999998,0.038512945175170898,
2.0750000000000002,0.030218958854675293,
2.0775000000000001,0.017140906304121017,
2.0800000000000001,0.01185198687016964,
2.0825,0.007091959472745657,
2.085,0.0026204190216958523,
2.0874999999999999,-0.0062265000306069851,
2.0899999999999999,-0.010481676086783409,
2.0924999999999998,-0.014520486816763878,
2.0950000000000002,-0.018198689445853233,
2.0975000000000001,-0.023944377899169922,
2.1000000000000001,-0.026180148124694824,
2.1025,-0.028127431869506836,
2.105,-0.029906433075666428,
2.1074999999999999,-0.033825039863586426,
2.1099999999999999,-0.035988688468933105,
2.1124999999999998,-0.038344662636518478,
2.1150000000000002,-0.040892958641052246,
2.1175000000000002,-0.046229958534240723,
2.1200000000000001,-0.049042701721191406,
2.1225000000000001,-0.051759283989667892,
2.125,-0.054259501397609711,
2.1274999999999999,-0.057577095925807953,
2.1299999999999999,-0.057697296142578125,
2.1324999999999998,-0.056543350219726562,
2.1349999999999998,-0.053995054215192795,
2.1375000000000002,-0.045508742332458496,
2.1400000000000001,-0.040508311241865158,
2.1425000000000001,-0.035724245011806488,
2.145,-0.031685434281826019,
2.1475,-0.027286013588309288,
2.1499999999999999,-0.026973485946655273,
2.1524999999999999,-0.027718743309378624,
2.1549999999999998,-0.0292332973331213,
2.1575000000000002,-0.033127866685390472,
2.1600000000000001,-0.035171311348676682,
2.1625000000000001,-0.037022434175014496,
2.165,-0.038561027497053146,
2.1675,-0.040484271943569183,
2.1699999999999999,-0.040532350540161133,
2.1724999999999999,-0.039883255958557129,
2.1749999999999998,-0.038609109818935394,
2.1775000000000002,-0.0345943383872509,
2.1800000000000002,-0.032623015344142914,
2.1825000000000001,-0.03106037899851799,
2.1850000000000001,-0.030243000015616417,
2.1875,-0.031132500618696213,
2.1899999999999999,-0.032382607460021973,
2.1924999999999999,-0.033801000565290451,
2.1949999999999998,-0.034954946488142014,
2.1974999999999998,-0.035435758531093597,
2.2000000000000002,-0.034810703247785568,
2.2025000000000001,-0.033849082887172699,
2.2050000000000001,-0.032839380204677582,
2.2075,-0.03214220330119133,
2.21,-0.032719176262617111,
2.2124999999999999,-0.033993326127529144,
2.2149999999999999,-0.035796366631984711,
2.2174999999999998,-0.039955377578735352,
2.2200000000000002,-0.041878622025251389,
2.2225000000000001,-0.043297015130519867,
2.2250000000000001,-0.043970149010419846,
2.2275,-0.042311351746320724,
2.23,-0.039618812501430511,
2.2324999999999999,-0.035748284310102463,
2.2349999999999999,-0.030916135758161545,
2.2374999999999998,-0.019857486709952354,
2.2400000000000002,-0.01490513514727354,
2.2425000000000002,-0.011010567657649517,
2.2450000000000001,-0.0086305541917681694,
2.2475000000000001,-0.0089671220630407333,
2.25,-0.011154810898005962,
2.2524999999999999,-0.014111797325313091,
2.2549999999999999,-0.017285149544477463,
2.2574999999999998,-0.022189419716596603,
2.2599999999999998,-0.023511648178100586,
2.2625000000000002,-0.023968419060111046,
2.2650000000000001,-0.023679932579398155,
2.2675000000000001,-0.021780729293823242,
2.27,-0.020386379212141037,
2.2725,-0.018943946808576584,
2.2749999999999999,-0.017525553703308105,
2.2774999999999999,-0.014977256767451763,
2.2799999999999998,-0.014183918945491314,
2.2825000000000002,-0.013799270614981651,
2.2850000000000001,-0.013919472694396973,
2.2875000000000001,-0.01567443273961544,
2.29,-0.017044743523001671,
2.2925,-0.018631419166922569,
2.2949999999999999,-0.020386379212141037,
2.2974999999999999,-0.02416074275970459,
2.2999999999999998,-0.026420554146170616,
2.3025000000000002,-0.028920769691467285,
2.3050000000000002,-0.031613312661647797,
2.3075000000000001,-0.036854147911071777,
2.3100000000000001,-0.038633149117231369,
2.3125,-0.039354365319013596,
2.3149999999999999,-0.038801431655883789,
2.3174999999999999,-0.033608675003051758,
2.3199999999999998,-0.029569864273071289,
2.3224999999999998,-0.025122364982962608,
2.3250000000000002,-0.02074698731303215,
2.3275000000000001,-0.013967554084956646,
2.3300000000000001,-0.011924108490347862,
2.3325,-0.010890364646911621,
2.335,-0.010818243026733398,
2.3374999999999999,-0.013198256492614746,
2.3399999999999999,-0.01567443273961544,
2.3424999999999998,-0.01891990564763546,
2.3450000000000002,-0.022838514298200607,
2.3475000000000001,-0.031637351959943771,
2.3500000000000001,-0.03550788015127182,
2.3525,-0.038368701934814453,
2.355,-0.039642851799726486,
2.3574999999999999,-0.036060810089111328,
2.3599999999999999,-0.03122866153717041,
2.3624999999999998,-0.024761756882071495,
2.3650000000000002,-0.017188986763358116,
2.3675000000000002,-0.0015866756439208984,
2.3700000000000001,0.0051446757279336452,
2.3725000000000001,0.010337432846426964,
2.375,0.013582905754446983,
2.3774999999999999,0.013390581123530865,
2.3799999999999999,0.0099287433549761772,
2.3824999999999998,0.0046879053115844727,
2.3849999999999998,-0.0018030405044555664,
2.3875000000000002,-0.015506148338317871,
2.3900000000000001,-0.020963352173566818,
2.3925000000000001,-0.02461751364171505,
2.395,-0.026059946045279503,
2.3975,-0.022213459014892578,
2.3999999999999999,-0.01783808134496212,
2.4024999999999999,-0.012621283531188965,
2.4049999999999998,-0.0072121620178222656,
2.4075000000000002,0.002091526985168457,
2.4100000000000001,0.0057216486893594265,
2.4125000000000001,0.0087026758119463921,
2.415,0.011299054138362408,
2.4175,0.0161312036216259,
2.4199999999999999,0.018391013145446777,
2.4224999999999999,0.020410418510437012,
2.4249999999999998,0.021949013695120811,
2.4275000000000002,0.02245386503636837,
2.4300000000000002,0.021179717034101486,
2.4325000000000001,0.018775662407279015,
2.4350000000000001,0.01538594625890255,
2.4375,0.0062986216507852077,
2.4399999999999999,0.0008895000210031867,
2.4424999999999999,-0.0047600269317626953,
2.4449999999999998,-0.010433594696223736,
2.4474999999999998,-0.021035473793745041,
2.4500000000000002,-0.025458931922912598,
2.4525000000000001,-0.029161175712943077,
2.4550000000000001,-0.032094120979309082,
2.4575,-0.035796366631984711,
2.46,-0.036998391151428223,
2.4624999999999999,-0.037863850593566895,
2.4649999999999999,-0.038416784256696701,
2.4674999999999998,-0.038248501718044281,
2.4700000000000002,-0.037070512771606445,
2.4725000000000001,-0.035099189728498459,
2.4750000000000001,-0.032478772103786469,
2.4775,-0.027310054749250412,
2.48,-0.02661287784576416,
2.4824999999999999,-0.028536122292280197,
2.4849999999999999,-0.034065447747707367,
2.4874999999999998,-0.058370433747768402,
2.4900000000000002,-0.076905690133571625,
2.4925000000000002,-0.098734498023986816,
2.4950000000000001,-0.12229423224925995,
2.4975000000000001,-0.166168212890625,
2.5,-0.18162629008293152,
2.5024999999999999,-0.18912693858146667,
2.5049999999999999,-0.18607378005981445,
2.5074999999999998,-0.13941109180450439,
2.5099999999999998,-0.092748403549194336,
2.5125000000000002,-0.030098756775259972,
2.5150000000000001,0.047407947480678558,
2.5175000000000001,0.23595790565013885,
2.52,0.33808213472366333,
2.5225,0.43794652819633484,
2.5249999999999999,0.52918040752410889,
2.5274999999999999,0.66121101379394531,
2.5299999999999998,0.69205504655838013,
2.5325000000000002,0.69503605365753174,
2.5350000000000001,0.66926461458206177,
2.5375000000000001,0.53826773166656494,
2.54,0.44109582901000977,
2.5425,0.33099016547203064,
2.5449999999999999,0.21518687903881073,
2.5474999999999999,-0.0039426488801836967,
2.5499999999999998,-0.094166800379753113,
2.5525000000000002,-0.16525468230247498,
2.5550000000000002,-0.21487435698509216,
2.5575000000000001,-0.25069475173950195,
2.5600000000000001,-0.24204015731811523,
2.5625,-0.22102873027324677,
2.5649999999999999,-0.19242048263549805,
2.5674999999999999,-0.130083367228508,
2.5699999999999998,-0.10298967361450195,
2.5724999999999998,-0.081401273608207703,
2.5750000000000002,-0.065943203866481781,
2.5775000000000001,-0.051759283989667892,
2.5800000000000001,-0.050917863845825195,
2.5825,-0.052336256951093674,
2.585,-0.054692231118679047,
2.5874999999999999,-0.057937704026699066,
2.5899999999999999,-0.057336688041687012,
2.5924999999999998,-0.054980717599391937,
2.5950000000000002,-0.050965946167707443,
2.5975000000000001,-0.039570730179548264,
2.6000000000000001,-0.033440392464399338,
2.6025,-0.027670662850141525,
2.605,-0.022622149437665939,
2.6074999999999999,-0.015265743248164654,
2.6099999999999999,-0.012597243301570415,
2.6124999999999998,-0.010409554466605186,
2.6150000000000002,-0.0084382295608520508,
2.6175000000000002,-0.004784067627042532,
2.6200000000000001,-0.0033656756859272718,
2.6225000000000001,-0.002283851383253932,
2.625,-0.0016347568016499281,
2.6274999999999999,-0.0012020270805805922,
2.6299999999999999,-0.00072121620178222656,
2.6324999999999998,0.00038464865065179765,
2.6349999999999998,0.0024280946236103773,
2.6375000000000002,0.0097845001146197319,
2.6400000000000001,0.01461664866656065,
2.6425000000000001,0.019689202308654785,
2.645,0.024497311562299728,
2.6475,0.031565230339765549,
2.6499999999999999,0.033560596406459808,
2.6524999999999999,0.034546256065368652,
2.6549999999999998,0.034738581627607346,
2.6575000000000002,0.034113526344299316,
2.6600000000000001,0.03368079662322998,
2.6625000000000001,0.033488474786281586,
2.665,0.033608675003051758,
2.6675,0.035003028810024261,
2.6699999999999999,0.036445461213588715,
2.6724999999999999,0.038320623338222504,
2.6749999999999998,0.040652554482221603,
2.6775000000000002,0.046398244798183441,
2.6800000000000002,0.04952351376414299,
2.6825000000000001,0.052817068994045258,
2.6850000000000001,0.056254863739013672,
2.6875,0.063875719904899597,
2.6899999999999999,0.068467460572719574,
2.6924999999999999,0.073684260249137878,
2.6949999999999998,0.079526111483573914,
2.6974999999999998,0.092267595231533051,
2.7000000000000002,0.098373889923095703,
2.7025000000000001,0.10395129770040512,
2.7050000000000001,0.10871132463216782,
2.7075,0.11601965129375458,
2.71,0.11931320279836655,
2.7124999999999999,0.12294332683086395,
2.7149999999999999,0.12739083170890808,
2.7174999999999998,0.13972362875938416,
2.7200000000000002,0.14744064211845398,
2.7225000000000001,0.15585482120513916,
2.7250000000000001,0.1644853800535202,
2.7275,0.18078486621379852,
2.73,0.18799702823162079,
2.7324999999999999,0.19439181685447693,
2.7349999999999999,0.19999325275421143,
2.7374999999999998,0.20908057689666748,
2.7400000000000002,0.21242222189903259,
2.7425000000000002,0.21497051417827606,
2.7450000000000001,0.21658122539520264,
2.7475000000000001,0.21667739748954773,
2.75,0.21525900065898895,
2.7524999999999999,0.21290302276611328,
2.7549999999999999,0.20968160033226013,
2.7574999999999998,0.20112316310405731,
2.7599999999999998,0.19576212763786316,
2.7625000000000002,0.18987219035625458,
2.7650000000000001,0.18342933058738708,
2.7675000000000001,0.1693415641784668,
2.77,0.16196112334728241,
2.7725,0.15426814556121826,
2.7749999999999999,0.14619052410125732,
2.7774999999999999,0.12782356142997742,
2.7799999999999998,0.11686106771230698,
2.7825000000000002,0.10450422763824463,
2.7850000000000001,0.090825162827968597,
2.7875000000000001,0.060966812074184418,
2.79,0.046302080154418945,
2.7925,0.032839380204677582,
2.7949999999999999,0.021299919113516808,
2.7974999999999999,0.0052889189682900906,
2.7999999999999998,0.00052889192011207342,
2.8025000000000002,-0.0027165811043232679,
2.8050000000000002,-0.0051687164232134819,
2.8075000000000001,-0.010409554466605186,
2.8100000000000001,-0.014015635475516319,
2.8125,-0.018511217087507248,
2.8149999999999999,-0.023703973740339279,
2.8174999999999999,-0.034714542329311371,
2.8199999999999998,-0.039907298982143402,
2.8224999999999998,-0.044378839433193207,
2.8250000000000002,-0.047936838120222092,
2.8275000000000001,-0.052240096032619476,
2.8300000000000001,-0.053009390830993652,
2.8325,-0.053153634071350098,
2.835,-0.05288919061422348,
2.8374999999999999,-0.052288174629211426,
2.8399999999999999,-0.052480500191450119,
2.8424999999999998,-0.053081512451171875,
2.8450000000000002,-0.053995054215192795,
2.8475000000000001,-0.055846177041530609,
2.8500000000000001,-0.056038498878479004,
2.8525,-0.055461525917053223,
2.855,-0.054067175835371017,
2.8574999999999999,-0.049667757004499435,
2.8599999999999999,-0.047672390937805176,
2.8624999999999998,-0.046446323394775391,
2.8650000000000002,-0.046398244798183441,
2.8675000000000002,-0.050388973206281662,
2.8700000000000001,-0.053874850273132324,
2.8725000000000001,-0.057769417762756348,
2.875,-0.061471663415431976,
2.8774999999999999,-0.066327854990959167,
2.8799999999999999,-0.067025028169155121,
2.8824999999999998,-0.066472098231315613,
2.8849999999999998,-0.064861379563808441,
2.8875000000000002,-0.059332054108381271,
2.8900000000000001,-0.055822134017944336,
2.8925000000000001,-0.052264135330915451,
2.895,-0.048850379884243011,
2.8975,-0.04353741928935051,
2.8999999999999999,-0.042239230126142502,
2.9024999999999999,-0.041998825967311859,
2.9049999999999998,-0.042840242385864258,
2.9075000000000002,-0.04707137867808342,
2.9100000000000001,-0.049571596086025238,
2.9125000000000001,-0.05180736631155014,
2.915,-0.053321920335292816,
2.9175,-0.053610406816005707,
2.9199999999999999,-0.05260070413351059,
2.9224999999999999,-0.051086150109767914,
2.9249999999999998,-0.049427352845668793,
2.9275000000000002,-0.046566527336835861,
2.9300000000000002,-0.045412581413984299,
2.9325000000000001,-0.044378839433193207,
2.9350000000000001,-0.043321054428815842,
2.9375,-0.040700636804103851,
2.9399999999999999,-0.039258204400539398,
2.9424999999999999,-0.037719607353210449,
2.9449999999999998,-0.036325257271528244,
2.9474999999999998,-0.034257769584655762,
2.9500000000000002,-0.033584635704755783,
2.9525000000000001,-0.033151905983686447,
2.9550000000000001,-0.032935541123151779,
2.9575,-0.032983623445034027,
2.96,-0.033416353166103363,
2.9624999999999999,-0.034113526344299316,
2.9649999999999999,-0.035099189728498459,
2.9674999999999998,-0.037575364112854004,
2.9700000000000002,-0.038633149117231369,
2.9725000000000001,-0.039402447640895844,
2.9750000000000001,-0.039763055741786957,
2.9775,-0.039282243698835373,
2.98,-0.038777392357587814,
2.9824999999999999,-0.038272541016340256,
2.9849999999999999,-0.037863850593566895,
2.9874999999999998,-0.037094555795192719,
2.9900000000000002,-0.036253135651350021,
2.9925000000000002,-0.034834742546081543,
2.9950000000000001,-0.032623015344142914,
2.9975000000000001,-0.025795500725507736,
3,-0.021804770454764366,84.677421569824219
3.0024999999999999,-0.017862122505903244,
3.0049999999999999,-0.014496445655822754,
3.0074999999999998,-0.011010567657649517,
3.0099999999999998,-0.011106729507446289,
3.0125000000000002,-0.01247704029083252,
3.0150000000000001,-0.014857053756713867,
3.0175000000000001,-0.021516283974051476,
3.02,-0.02524256706237793,
3.0225,-0.028704404830932617,
3.0249999999999999,-0.031613312661647797,
3.0274999999999999,-0.034570299088954926,
3.0299999999999998,-0.034113526344299316,
3.0325000000000002,-0.032406650483608246,
3.0350000000000001,-0.029545824974775314,
3.0375000000000001,-0.022189419716596603,
3.04,-0.018871825188398361,
3.0425,-0.016443729400634766,
3.0449999999999999,-0.015289783477783203,
3.0474999999999999,-0.016804337501525879,
3.0499999999999998,-0.018751621246337891,
3.0525000000000002,-0.020867189392447472,
3.0550000000000002,-0.022550027817487717,
3.0575000000000001,-0.023415487259626389,
3.0600000000000001,-0.022598108276724815,
3.0625,-0.021155675873160362,
3.0649999999999999,-0.019520919770002365,
3.0674999999999999,-0.017188986763358116,
3.0699999999999998,-0.016876459121704102,
3.0724999999999998,-0.017333230003714561,
3.0750000000000002,-0.018415054306387901,
3.0775000000000001,-0.021804770454764366,
3.0800000000000001,-0.023728013038635254,
3.0825,-0.025410851463675499,
3.085,-0.02661287784576416,
3.0874999999999999,-0.026468634605407715,
3.0899999999999999,-0.024545392021536827,
3.0924999999999998,-0.021299919113516808,
3.0950000000000002,-0.016780298203229904,
3.0975000000000001,-0.0052648782730102539,
3.1000000000000001,0.00060101354029029608,
3.1025,0.0058178110048174858,
3.105,0.0098566217347979546,
3.1074999999999999,0.013318459503352642,
3.1099999999999999,0.012837648391723633,
3.1124999999999998,0.011130770668387413,
3.1150000000000002,0.0085824728012084961,
3.1175000000000002,0.0024040541611611843,
3.1200000000000001,-0.00084141892148181796,
3.1225000000000001,-0.0038945674896240234,
3.125,-0.0067313513718545437,
3.1274999999999999,-0.011323094367980957,
3.1299999999999999,-0.012717446312308311,
3.1324999999999998,-0.013366540893912315,
3.1349999999999998,-0.013054013252258301,
3.1375000000000002,-0.0092796487733721733,
3.1400000000000001,-0.0059139728546142578,
3.1425000000000001,-0.0014905135612934828,
3.145,0.0038224458694458008,
3.1475,0.016804337501525879,
3.1499999999999999,0.024256905540823936,
3.1524999999999999,0.031877756118774414,
3.1549999999999998,0.039258204400539398,
3.1575000000000002,0.050797663629055023,
3.1600000000000001,0.053490202873945236,
3.1625000000000001,0.053538285195827484,
3.165,0.05060533806681633,
3.1675,0.036830108612775803,
3.1699999999999999,0.027286013588309288,
3.1724999999999999,0.017020702362060547,
3.1749999999999998,0.007043878547847271,
3.1775000000000002,-0.0094238920137286186,
3.1800000000000002,-0.015289783477783203,
3.1825000000000001,-0.019520919770002365,
3.1850000000000001,-0.022357702255249023,
3.1875,-0.025122364982962608,
3.1899999999999999,-0.02553105354309082,
3.1924999999999999,-0.025627216324210167,
3.1949999999999998,-0.025482973083853722,
3.1974999999999998,-0.024713676422834396,
3.2000000000000002,-0.024232864379882812,
3.2025000000000001,-0.023631852120161057,
3.2050000000000001,-0.022982757538557053,
3.2075,-0.021468203514814377,
3.21,-0.020722946152091026,
3.2124999999999999,-0.020386379212141037,
3.2149999999999999,-0.02091526985168457,
3.2174999999999998,-0.027334094047546387,
3.2200000000000002,-0.03476262092590332,
3.2225000000000001,-0.045701067894697189,
3.2250000000000001,-0.060269635170698166,
3.2275,-0.097796916961669922,
3.23,-0.11779864877462387,
3.2324999999999999,-0.13590118288993835,
3.2349999999999999,-0.14938792586326599,
3.2374999999999998,-0.15186409652233124,
3.2400000000000002,-0.1361415833234787,
3.2425000000000002,-0.10659575462341309,
3.2450000000000001,-0.062433283776044846,
3.2475000000000001,0.068755947053432465,
3.25,0.15258531272411346,
3.2524999999999999,0.24437209963798523,
3.2549999999999999,0.33974093198776245,
3.2574999999999998,0.51937186717987061,
3.2599999999999998,0.59178197383880615,
3.2625000000000002,0.64520001411437988,
3.2650000000000001,0.67517858743667603,
3.2675000000000001,0.65510475635528564,
3.27,0.60522061586380005,
3.2725,0.5321614146232605,
3.2749999999999999,0.44078332185745239,
3.2774999999999999,0.2283610999584198,
3.2799999999999998,0.12104412168264389,
3.2825000000000002,0.021780729293823242,
3.2850000000000001,-0.064092084765434265,
3.2875000000000001,-0.18213114142417908,
3.29,-0.21177312731742859,
3.2925,-0.22321641445159912,
3.2949999999999999,-0.21917760372161865,
3.2974999999999999,-0.18032810091972351,
3.2999999999999998,-0.15393158793449402,
3.3025000000000002,-0.12775143980979919,
3.3050000000000002,-0.1045282706618309,
3.3075000000000001,-0.072025462985038757,
3.3100000000000001,-0.062673687934875488,
3.3125,-0.05675971508026123,
3.3149999999999999,-0.052865147590637207,
3.3174999999999999,-0.046278040856122971,
3.3199999999999998,-0.042022865265607834,
3.3224999999999998,-0.036709904670715332,
3.3250000000000002,-0.030579566955566406,
3.3275000000000001,-0.017645757645368576,
3.3300000000000001,-0.011755824089050293,
3.3325,-0.006875594612210989,
3.335,-0.0031973919831216335,
3.3374999999999999,0.00024040541029535234,
3.3399999999999999,7.2121620178222656e-05,
3.3424999999999998,-0.00093758106231689453,
3.3450000000000002,-0.002476175781339407,
3.3475000000000001,-0.0050965948030352592,
3.3500000000000001,-0.0050725541077554226,
3.3525,-0.0037022433243691921,
3.355,-0.0007692973013035953,
3.3574999999999999,0.0091594457626342773,
3.3599999999999999,0.015169581398367882,
3.3624999999999998,0.021179717034101486,
3.3650000000000002,0.026468634605407715,
3.3675000000000002,0.033320188522338867,
3.3700000000000001,0.034690499305725098,
3.3725000000000001,0.03476262092590332,
3.375,0.033969283103942871,
3.3774999999999999,0.03122866153717041,
3.3799999999999999,0.029954513534903526,
3.3824999999999998,0.029281377792358398,
3.3849999999999998,0.029353499412536621,
3.3875000000000002,0.032478772103786469,
3.3900000000000001,0.035724245011806488,
3.3925000000000001,0.039883255958557129,
3.395,0.044811569154262543,
3.3975,0.055461525917053223,
3.3999999999999999,0.060293674468994141,
3.4024999999999999,0.064452692866325378,
3.4049999999999998,0.067794322967529297,
3.4075000000000002,0.072674557566642761,
3.4100000000000001,0.075030528008937836,
3.4125000000000001,0.07779519259929657,
3.415,0.08132915198802948,
3.4175,0.090584754943847656,
3.4199999999999999,0.095657311379909515,
3.4224999999999999,0.10044138133525848,
3.4249999999999998,0.10438402742147446,
3.4275000000000002,0.10851900279521942,
3.4300000000000002,0.10883152484893799,
3.4325000000000001,0.10827859491109848,
3.4350000000000001,0.1075093001127243,
3.4375,0.10767757892608643,
3.4399999999999999,0.10962486267089844,
3.4424999999999999,0.11342327296733856,
3.4449999999999998,0.11912088096141815,
3.4474999999999998,0.1362377405166626,
3.4500000000000002,0.14720022678375244,
3.4525000000000001,0.1590762585401535,
3.4550000000000001,0.17131289839744568,
3.4575,0.19410333037376404,
3.46,0.20333489775657654,
3.4624999999999999,0.21059513092041016,
3.4649999999999999,0.21569173038005829,
3.4674999999999998,0.22035560011863708,
3.4700000000000002,0.22098064422607422,
3.4725000000000001,0.22117297351360321,
3.4750000000000001,0.22153358161449432,
3.4775,0.22396168112754822,
3.48,0.22593300044536591,
3.4824999999999999,0.22819280624389648,
3.4849999999999999,0.23026029765605927,
3.4874999999999998,0.23230373859405518,
3.4900000000000002,0.23170273005962372,
3.4925000000000002,0.22958716750144958,
3.4950000000000001,0.22581279277801514,
3.4975000000000001,0.21271070837974548,
3.5,0.20316660404205322,
3.5024999999999999,0.19181947410106659,
3.5049999999999999,0.17888566851615906,
3.5074999999999998,0.15039762854576111,
3.5099999999999998,0.1361415833234787,
3.5125000000000002,0.12263079732656479,
3.5150000000000001,0.11034607887268066,
3.5175000000000001,0.08981546014547348,
3.52,0.081112787127494812,
3.5225,0.073011122643947601,
3.5249999999999999,0.065005622804164886,
3.5274999999999999,0.04827340692281723,
3.5299999999999998,0.039498608559370041,
3.5325000000000002,0.030627649277448654,
3.5350000000000001,0.02199709415435791,
3.5375000000000001,0.0064909458160400391,
3.54,-9.6162162662949413e-05,
3.5425,-0.0057697296142578125,
3.5449999999999999,-0.010649959556758404,
3.5474999999999999,-0.018222730606794357,
3.5499999999999998,-0.02108355425298214,
3.5525000000000002,-0.023559730499982834,
3.5550000000000002,-0.027718743309378624,
3.5575000000000001,-0.02985835075378418,
3.5600000000000001,-0.032262407243251801,
3.5625,-0.034978985786437988,
3.5649999999999999,-0.037984054535627365,
3.5674999999999999,-0.044258635491132736,
3.5699999999999998,-0.046855013817548752,
3.5724999999999998,-0.048826336860656738,
3.5750000000000002,-0.049932204186916351,
3.5775000000000001,-0.049715839326381683,
3.5800000000000001,-0.048826336860656738,
3.5825,-0.047648351639509201,
3.585,-0.046446323394775391,
3.5874999999999999,-0.044162474572658539,
3.5899999999999999,-0.042816203087568283,
3.5924999999999998,-0.041229527443647385,
3.5950000000000002,-0.036998391151428223,
3.5975000000000001,-0.034666460007429123,
3.6000000000000001,-0.032526850700378418,
3.6025,-0.030868053436279297,
3.605,-0.030002593994140625,
3.6074999999999999,-0.03094017505645752,
3.6099999999999999,-0.032454729080200195,
3.6124999999999998,-0.034353934228420258,
3.6150000000000002,-0.037984054535627365,
3.6175000000000002,-0.039402447640895844,
3.6200000000000001,-0.040436189621686935,
3.6225000000000001,-0.041061244904994965,
3.625,-0.041421853005886078,
3.6274999999999999,-0.041349731385707855,
3.6299999999999999,-0.040796797722578049,
3.6324999999999998,-0.039955377578735352,
3.6349999999999998,-0.037407081574201584,
3.6375000000000002,-0.036108892410993576,
3.6400000000000001,-0.035171311348676682,
3.6425000000000001,-0.03476262092590332,
3.645,-0.036445461213588715,
3.6475,-0.038368701934814453,
3.6499999999999999,-0.040676593780517578,
3.6524999999999999,-0.043032567948102951,
3.6549999999999998,-0.046109758317470551,
3.6575000000000002,-0.046350162476301193,
3.6600000000000001,-0.045532785356044769,
3.6625000000000001,-0.043633580207824707,
3.665,-0.037358999252319336,
3.6675,-0.03334423154592514,
3.6699999999999999,-0.02906501293182373,
3.6724999999999999,-0.024833878502249718,
3.6749999999999998,-0.017477473244071007,
3.6775000000000002,-0.015025338158011436,
3.6800000000000002,-0.013703107833862305,
3.6825000000000001,-0.013558864593505859,
3.6850000000000001,-0.016563933342695236,
3.6875,-0.019088190048933029,
3.6899999999999999,-0.021684568375349045,
3.6924999999999999,-0.024040540680289268,
3.6949999999999998,-0.026492675766348839,
3.6974999999999998,-0.026492675766348839,
3.7000000000000002,-0.025795500725507736,
3.7025000000000001,-0.024593472480773926,
3.7050000000000001,-0.02182881161570549,
3.7075,-0.020554661750793457,
3.71,-0.019496878609061241,
3.7124999999999999,-0.018799703568220139,
3.7149999999999999,-0.018463134765625,
3.7174999999999998,-0.019040107727050781,
3.7200000000000002,-0.020242135971784592,
3.7225000000000001,-0.021924972534179688,
3.7250000000000001,-0.02644459530711174,
3.7275,-0.028632283210754395,
3.73,-0.030363202095031738,
3.7324999999999999,-0.031420987099409103,
3.7349999999999999,-0.031012296676635742,
3.7374999999999998,-0.02985835075378418,
3.7400000000000002,-0.028464000672101974,
3.7425000000000002,-0.027045607566833496,
3.7450000000000001,-0.025002162903547287,
3.7475000000000001,-0.024208825081586838,
3.75,-0.023319324478507042,
3.7524999999999999,-0.022141337394714355,
3.7549999999999999,-0.018270811066031456,
3.7574999999999998,-0.01584271714091301,
3.7599999999999998,-0.013510784134268761,
3.7625000000000002,-0.011611580848693848,
3.7650000000000001,-0.01060187816619873,
3.7675000000000001,-0.011659662239253521,
3.77,-0.01353482436388731,
3.7725,-0.01601099967956543,
3.7749999999999999,-0.020698904991149902,
3.7774999999999999,-0.022357702255249023,
3.7799999999999998,-0.023271244019269943,
3.7825000000000002,-0.023367404937744141,
3.7850000000000001,-0.02182881161570549,
3.7875000000000001,-0.020482540130615234,
3.79,-0.019064148887991905,
3.7925,-0.01783808134496212,
3.7949999999999999,-0.016587972640991211,
3.7974999999999999,-0.016972621902823448,
3.7999999999999998,-0.018150608986616135,
3.8025000000000002,-0.019905567169189453,
3.8050000000000002,-0.024521350860595703,
3.8075000000000001,-0.026540756225585938,
3.8100000000000001,-0.027814906090497971,
3.8125,-0.028175514191389084,
3.8149999999999999,-0.025939743965864182,
3.8174999999999999,-0.023968419060111046,
3.8199999999999998,-0.022045176476240158,
3.8224999999999998,-0.02062678337097168,
3.8250000000000002,-0.02062678337097168,
3.8275000000000001,-0.021900933235883713,
3.8300000000000001,-0.023559730499982834,
3.8325,-0.02507428452372551,
3.835,-0.025290649384260178,
3.8374999999999999,-0.023319324478507042,
3.8399999999999999,-0.019857486709952354,
3.8424999999999998,-0.015025338158011436,
3.8450000000000002,-0.0033897161483764648,
3.8475000000000001,0.0024280946236103773,
3.8500000000000001,0.0075487298890948296,
3.8525,0.011443297378718853,
3.855,0.014784932136535645,
3.8574999999999999,0.013919472694396973,
3.8599999999999999,0.011515418998897076,
3.8624999999999998,0.0079814596101641655,
3.8650000000000002,-0.00081737840082496405,
3.8675000000000002,-0.004784067627042532,
3.8700000000000001,-0.0077410540543496609,
3.8725000000000001,-0.0093758106231689453,
3.875,-0.0080776214599609375,
3.8774999999999999,-0.0056495270691812038,
3.8799999999999999,-0.0025482974015176296,
3.8824999999999998,0.0008895000210031867,
3.8849999999999998,0.0073564052581787109,
3.8875000000000002,0.010361473076045513,
3.8900000000000001,0.013366540893912315,
3.8925000000000001,0.01646777056157589,
3.895,0.023631852120161057,
3.8975,0.027406215667724609,
3.8999999999999999,0.030964216217398643,
3.9024999999999999,0.033993326127529144,
3.9049999999999998,0.03675798699259758,
3.9075000000000002,0.036205053329467773,
3.9100000000000001,0.034353934228420258,
3.9125000000000001,0.031252704560756683,
3.915,0.022405784577131271,
3.9175,0.016924541443586349,
3.9199999999999999,0.010914405807852745,
3.9224999999999999,0.004519621841609478,
3.9249999999999998,-0.009135405533015728,
3.9275000000000002,-0.01601099967956543,
3.9300000000000002,-0.022646188735961914,
3.9325000000000001,-0.028872689232230186,
3.9350000000000001,-0.039138000458478928,
3.9375,-0.042960446327924728,
3.9399999999999999,-0.045701067894697189,
3.9424999999999999,-0.047095417976379395,
3.9449999999999998,-0.045292377471923828,
3.9474999999999998,-0.041590135544538498,
3.9500000000000002,-0.035964649170637131,
3.9525000000000001,-0.02877652645111084,
3.9550000000000001,-0.012332797050476074,
3.9575,-0.0055293245241045952,
3.96,-0.0015626351814717054,
3.9624999999999999,-0.0017309188842773438,
3.9649999999999999,-0.018463134765625,
3.9674999999999998,-0.035291515290737152,
3.9700000000000002,-0.056855879724025726,
3.9725000000000001,-0.081617638468742371,
3.9750000000000001,-0.13179025053977966,
3.9775,-0.15212854743003845,
3.98,-0.16578356921672821,
3.9824999999999999,-0.17020702362060547,
3.9849999999999999,-0.14352202415466309,
3.9874999999999998,-0.10960082709789276,
3.9900000000000002,-0.061303377151489258,
3.9925000000000002,0.00074525678064674139,
3.9950000000000001,0.15895605087280273,
3.9975000000000001,0.24884364008903503,
4,0.34024578332901001,84.1683349609375
4.0025000000000004,0.42813798785209656,
4.0049999999999999,0.57173216342926025,
4.0075000000000003,0.61755341291427612,
4.0099999999999998,0.64072847366333008,
4.0125000000000002,0.63878118991851807,
4.0149999999999997,0.55867815017700195,
4.0175000000000001,0.4844169020652771,
4.0199999999999996,0.39299070835113525,
4.0225,0.29043376445770264,
4.0250000000000004,0.18350145220756531,
4.0274999999999999,-0.015626352280378342,
4.0300000000000002,-0.095777511596679688,
4.0324999999999998,-0.1574895828962326,
4.0350000000000001,-0.22040367126464844,
4.0374999999999996,-0.22412995994091034,
4.04,-0.21357616782188416,
4.0425000000000004,-0.19304554164409637,
4.0449999999999999,-0.13960342109203339,
4.0475000000000003,-0.11380791664123535,
4.0499999999999998,-0.091738700866699219,
4.0525000000000002,-0.074501633644104004,
4.0549999999999997,-0.053634446114301682,
4.0575000000000001,-0.048537850379943848,
4.0599999999999996,-0.045532785356044769,
4.0625,-0.043561458587646484,
4.0650000000000004,-0.040219824761152267,
4.0674999999999999,-0.03796001523733139,
4.0700000000000003,-0.035171311348676682,
4.0724999999999998,-0.031949877738952637,
4.0750000000000002,-0.024545392021536827,
4.0774999999999997,-0.020771026611328125,
4.0800000000000001,-0.017068784683942795,
4.0824999999999996,-0.013390581123530865,
4.085,-0.0059860944747924805,
4.0875000000000004,-0.0019472837448120117,
4.0899999999999999,0.0024280946236103773,
4.0925000000000002,0.0069957971572875977,
4.0949999999999998,0.016275446861982346,
4.0975000000000001,0.020218094810843468,
4.0999999999999996,0.023271244019269943,
4.1025,0.025218527764081955,
4.1050000000000004,0.025603175163269043,
4.1074999999999999,0.024593472480773926,
4.1100000000000003,0.023295283317565918,
4.1124999999999998,0.022093256935477257,
4.1150000000000002,0.021299919113516808,
4.1174999999999997,0.021756689995527267,
4.1200000000000001,0.022622149437665939,
4.1224999999999996,0.023728013038635254,
4.125,0.025627216324210167,
4.1275000000000004,0.026420554146170616,
4.1299999999999999,0.027213891968131065,
4.1325000000000003,0.028103392571210861,
4.1349999999999998,0.031012296676635742,
4.1375000000000002,0.033007662743330002,
4.1399999999999997,0.035291515290737152,
4.1425000000000001,0.037791728973388672,
4.1449999999999996,0.042792163789272308,
4.1475,0.045364499092102051,
4.1500000000000004,0.048081081360578537,
4.1524999999999999,0.050965946167707443,
4.1550000000000002,0.057769417762756348,
4.1574999999999998,0.061615906655788422,
4.1600000000000001,0.065726839005947113,
4.1624999999999996,0.070078179240226746,
4.165,0.079333782196044922,
4.1675000000000004,0.084406338632106781,
4.1699999999999999,0.089911624789237976,
4.1725000000000003,0.095777511596679688,
4.1749999999999998,0.10818243026733398,
4.1775000000000002,0.11407236754894257,
4.1799999999999997,0.11928915977478027,
4.1825000000000001,0.12359242141246796,
4.1849999999999996,0.12900154292583466,
4.1875,0.1306363046169281,
4.1900000000000004,0.13212680816650391,
4.1924999999999999,0.13402602076530457,
4.1950000000000003,0.14104585349559784,
4.1974999999999998,0.14652709662914276,
4.2000000000000002,0.15325844287872314,
4.2024999999999997,0.16097545623779297,
4.2050000000000001,0.17729899287223816,
4.2074999999999996,0.18504004180431366,
4.21,0.19193968176841736,
4.2125000000000004,0.19766132533550262,
4.2149999999999999,0.20504176616668701,
4.2175000000000002,0.20643612742424011,
4.2199999999999998,0.20643612742424011,
4.2225000000000001,0.205234095454216,
4.2249999999999996,0.20030578970909119,
4.2275,0.19744496047496796,
4.2300000000000004,0.19477646052837372,
4.2324999999999999,0.19237241148948669,
4.2350000000000003,0.18847784399986267,
4.2374999999999998,0.18626610934734344,
4.2400000000000002,0.18328508734703064,
4.2424999999999997,0.17917415499687195,
4.2450000000000001,0.16664902865886688,
4.2474999999999996,0.1585233211517334,
4.25,0.14967641234397888,
4.2525000000000004,0.1405169665813446,
4.2549999999999999,0.12332797050476074,
4.2575000000000003,0.11568307876586914,
4.2599999999999998,0.10863920301198959,
4.2625000000000002,0.10190784931182861,
4.2649999999999997,0.087651811540126801,
4.2675000000000001,0.079381868243217468,
4.2699999999999996,0.0699339359998703,
4.2725,0.059115689247846603,
4.2750000000000004,0.047047339379787445,
4.2774999999999999,0.019929608330130577,
4.2800000000000002,0.0057216486893594265,
4.2824999999999998,-0.0080295410007238388,
4.2850000000000001,-0.031396947801113129,
4.2874999999999996,-0.039522647857666016,
4.29,-0.044667325913906097,
4.2925000000000004,-0.046782892197370529,
4.2949999999999999,-0.043128728866577148,
4.2975000000000003,-0.03904183954000473,
4.2999999999999998,-0.034786663949489594,
4.3025000000000002,-0.031276743859052658,
4.3049999999999997,-0.029377540573477745,
4.3075000000000001,-0.031300783157348633,
4.3099999999999996,-0.03476262092590332,
4.3125,-0.039306282997131348,
4.3150000000000004,-0.048850379884243011,
4.3174999999999999,-0.053009390830993652,
4.3200000000000003,-0.05642315000295639,
4.3224999999999998,-0.059043567627668381,
4.3250000000000002,-0.062697730958461761,
4.3274999999999997,-0.063923798501491547,
4.3300000000000001,-0.064861379563808441,
4.3324999999999996,-0.065582595765590668,
4.335,-0.06570279598236084,
4.3375000000000004,-0.065053701400756836,
4.3399999999999999,-0.063851676881313324,
4.3425000000000002,-0.062072675675153732,
4.3449999999999998,-0.057072244584560394,
4.3475000000000001,-0.053995054215192795,
4.3499999999999996,-0.05077362060546875,
4.3525,-0.047744512557983398,
4.3550000000000004,-0.043441258370876312,
4.3574999999999999,-0.042960446327924728,
4.3600000000000003,-0.043970149010419846,
4.3624999999999998,-0.046446323394775391,
4.3650000000000002,-0.055100917816162109,
4.3674999999999997,-0.060197513550519943,
4.3700000000000001,-0.064957544207572937,
4.3724999999999996,-0.068828068673610687,
4.375,-0.072241827845573425,
4.3775000000000004,-0.071785055100917816,
4.3799999999999999,-0.070198379456996918,
4.3825000000000003,-0.067794322967529297,
4.3849999999999998,-0.06245732307434082,
4.3875000000000002,-0.059933066368103027,
4.3899999999999997,-0.05767325684428215,
4.3925000000000001,-0.055653851479291916,
4.3949999999999996,-0.051783323287963867,
4.3975,-0.050004325807094574,
4.4000000000000004,-0.048393607139587402,
4.4024999999999999,-0.047023296356201172,
4.4050000000000002,-0.045677028596401215,
4.4074999999999998,-0.045677028596401215,
4.4100000000000001,-0.046109758317470551,
4.4124999999999996,-0.046903096139431,
4.415,-0.048850379884243011,
4.4175000000000004,-0.049836039543151855,
4.4199999999999999,-0.050557255744934082,
4.4225000000000003,-0.050845742225646973,
4.4249999999999998,-0.04952351376414299,
4.4275000000000002,-0.047504108399152756,
4.4299999999999997,-0.044523082673549652,
4.4325000000000001,-0.040796797722578049,
4.4349999999999996,-0.032286446541547775,
4.4375,-0.028704404830932617,
4.4400000000000004,-0.026276310905814171,
4.4424999999999999,-0.025338729843497276,
4.4450000000000003,-0.028295716270804405,
4.4474999999999998,-0.031396947801113129,
4.4500000000000002,-0.034738581627607346,
4.4524999999999997,-0.0376715287566185,
4.4550000000000001,-0.039883255958557129,
4.4574999999999996,-0.038801431655883789,
4.46,-0.036445461213588715,
4.4625000000000004,-0.033199988305568695,
4.4649999999999999,-0.026492675766348839,
4.4675000000000002,-0.023968419060111046,
4.4699999999999998,-0.022550027817487717,
4.4725000000000001,-0.022405784577131271,
4.4749999999999996,-0.025891661643981934,
4.4775,-0.029281377792358398,
4.4800000000000004,-0.033416353166103363,
4.4824999999999999,-0.037791728973388672,
4.4850000000000003,-0.045556824654340744,
4.4874999999999998,-0.047840677201747894,
4.4900000000000002,-0.048537850379943848,
4.4924999999999997,-0.047456026077270508,
4.4950000000000001,-0.040340028703212738,
4.4974999999999996,-0.035243432968854904,
4.5,-0.029930472373962402,
4.5025000000000004,-0.025026202201843262,
4.5049999999999999,-0.018463134765625,
4.5075000000000003,-0.017044743523001671,
4.5099999999999998,-0.016732215881347656,
4.5125000000000002,-0.017188986763358116,
4.5149999999999997,-0.017982324585318565,
4.5175000000000001,-0.01937667652964592,
4.5199999999999996,-0.019689202308654785,
4.5225,-0.019641121849417686,
4.5250000000000004,-0.019232433289289474,
4.5274999999999999,-0.019064148887991905,
4.5300000000000002,-0.019160311669111252,
4.5324999999999998,-0.019689202308654785,
4.5350000000000001,-0.02245386503636837,
4.5374999999999996,-0.024954080581665039,
4.54,-0.028127431869506836,
4.5425000000000004,-0.031781595200300217,
4.5449999999999999,-0.039282243698835373,
4.5475000000000003,-0.042094986885786057,
4.5499999999999998,-0.043681662529706955,
4.5525000000000002,-0.043849945068359375,
4.5549999999999997,-0.039835177361965179,
4.5575000000000001,-0.036469500511884689,
4.5599999999999996,-0.032959580421447754,
4.5625,-0.029882391914725304,
4.5650000000000004,-0.026757121086120605,
4.5674999999999999,-0.026733081787824631,
4.5700000000000003,-0.027406215667724609,
4.5724999999999998,-0.028295716270804405,
4.5750000000000002,-0.028464000672101974,
4.5774999999999997,-0.027093689888715744,
4.5800000000000001,-0.024545392021536827,
4.5824999999999996,-0.020939311012625694,
4.585,-0.011876027099788189,
4.5875000000000004,-0.0070679187774658203,
4.5899999999999999,-0.0025963783264160156,
4.5925000000000002,0.0012020270805805922,
4.5949999999999998,0.0060101351700723171,
4.5975000000000001,0.0065871081314980984,
4.5999999999999996,0.0059860944747924805,
4.6025,0.00430325698107481,
4.6050000000000004,-0.0013462703209370375,
4.6074999999999999,-0.0044715404510498047,
4.6100000000000003,-0.0072602434083819389,
4.6124999999999998,-0.0094960136339068413,
4.6150000000000002,-0.011491378769278526,
4.6174999999999997,-0.011443297378718853,
4.6200000000000001,-0.010914405807852745,
4.6224999999999996,-0.010048946365714073,
4.625,-0.0076929731294512749,
4.6275000000000004,-0.0060341758653521538,
4.6299999999999999,-0.0038945674896240234,
4.6325000000000003,-0.0012020270805805922,
4.6349999999999998,0.0059620542451739311,
4.6375000000000002,0.0099047031253576279,
4.6399999999999997,0.013679067604243755,
4.6425000000000001,0.016924541443586349,
4.6449999999999996,0.020674865692853928,
4.6475,0.02108355425298214,
4.6500000000000004,0.020578702911734581,
4.6524999999999999,0.019256472587585449,
4.6550000000000002,0.014833013527095318,
4.6574999999999998,0.01168370246887207,
4.6600000000000001,0.0078131761401891708,
4.6624999999999996,0.0032454729080200195,
4.665,-0.0081978244706988335,
4.6675000000000004,-0.014664730057120323,
4.6699999999999999,-0.021275877952575684,
4.6725000000000003,-0.027718743309378624,
4.6749999999999998,-0.038873553276062012,
4.6775000000000002,-0.043321054428815842,
4.6799999999999997,-0.046855013817548752,
4.6825000000000001,-0.049379270523786545,
4.6849999999999996,-0.051206350326538086,
4.6875,-0.050196647644042969,
4.6900000000000004,-0.047816634178161621,
4.6924999999999999,-0.044210553169250488,
4.6950000000000003,-0.034954946488142014,
4.6974999999999998,-0.030988257378339767,
4.7000000000000002,-0.028824608772993088,
4.7024999999999997,-0.029617946594953537,
4.7050000000000001,-0.04399418830871582,
4.7074999999999996,-0.058298312127590179,
4.71,-0.077001854777336121,
4.7125000000000004,-0.099022984504699707,
4.7149999999999999,-0.14549335837364197,
4.7175000000000002,-0.16506235301494598,
4.7199999999999998,-0.17828464508056641,
4.7225000000000001,-0.18210709095001221,
4.7249999999999996,-0.15128712356090546,
4.7275,-0.11272609233856201,
4.7300000000000004,-0.057865582406520844,
4.7324999999999999,0.012428959831595421,
4.7350000000000003,0.1891990602016449,
4.7374999999999998,0.28721234202384949,
4.7400000000000002,0.3844563364982605,
4.7424999999999997,0.47489684820175171,
4.7450000000000001,0.61202406883239746,
4.7474999999999996,0.64916670322418213,
4.75,0.66109085083007812,
4.7525000000000004,0.64666652679443359,
4.7549999999999999,0.54377299547195435,
4.7575000000000003,0.46193897724151611,
4.7599999999999998,0.36681056022644043,
4.7625000000000002,0.26473444700241089,
4.7649999999999997,0.065678760409355164,
4.7675000000000001,-0.019496878609061241,
4.7699999999999996,-0.089358687400817871,
4.7725,-0.14174303412437439,
4.7750000000000004,-0.19405524432659149,
4.7774999999999999,-0.19823829829692841,
4.7800000000000002,-0.19222816824913025,
4.7824999999999998,-0.17994344234466553,
4.7850000000000001,-0.15013317763805389,
4.7874999999999996,-0.13722340762615204,
4.79,-0.12705425918102264,
4.7925000000000004,-0.11955361068248749,
4.7949999999999999,-0.1091921329498291,
4.7975000000000003,-0.10435998439788818,
4.7999999999999998,-0.098614297807216644,
4.8025000000000002,-0.091450214385986328,
4.8049999999999997,-0.073371730744838715,
4.8075000000000001,-0.063154503703117371,
4.8099999999999996,-0.052985351532697678,
4.8125,-0.043585501611232758,
4.8150000000000004,-0.028920769691467285,
4.8174999999999999,-0.024425189942121506,
4.8200000000000003,-0.021876892074942589,
4.8224999999999998,-0.021059513092041016,
4.8250000000000002,-0.023006796836853027,
4.8274999999999997,-0.024497311562299728,
4.8300000000000001,-0.025627216324210167,
4.8324999999999996,-0.026011865586042404,
4.835,-0.023631852120161057,
4.8375000000000004,-0.021203756332397461,
4.8399999999999999,-0.018318891525268555,
4.8425000000000002,-0.015337864868342876,
4.8449999999999998,-0.010097026824951172,
4.8475000000000001,-0.0078852977603673935,
4.8499999999999996,-0.0058178110048174858,
4.8525,-0.0037022433243691921,
4.8550000000000004,0.0015385946026071906,
4.8574999999999999,0.0047119460068643093,
4.8600000000000003,0.0081737842410802841,
4.8624999999999998,0.01185198687016964,
4.8650000000000002,0.019088190048933029,
4.8674999999999997,0.022598108276724815,
4.8700000000000001,0.02598782442510128,
4.8724999999999996,0.0292332973331213,
4.875,0.035267472267150879,
4.8775000000000004,0.037767689675092697,
4.8799999999999999,0.039739012718200684,
4.8825000000000003,0.041157405823469162,
4.8849999999999998,0.042070947587490082,
4.8875000000000002,0.041974782943725586,
4.8899999999999997,0.041782461106777191,
4.8925000000000001,0.041782461106777191,
4.8949999999999996,0.043393176048994064,
4.8975,0.045196216553449631,
4.9000000000000004,0.047744512557983398,
4.9024999999999999,0.051086150109767914,
4.9050000000000002,0.059909027069807053,
4.9074999999999998,0.065534517168998718,
4.9100000000000001,0.071857176721096039,
4.9124999999999996,0.078756809234619141,
4.915,0.093277297914028168,
4.9175000000000004,0.10003268718719482,
4.9199999999999999,0.10597070306539536,
4.9225000000000003,0.11089901626110077,
4.9249999999999998,0.11741399765014648,
4.9275000000000002,0.11967381089925766,
4.9299999999999997,0.12186150252819061,
4.9325000000000001,0.12443383783102036,
4.9349999999999996,0.13229510188102722,
4.9375,0.13770422339439392,
4.9400000000000004,0.14397880434989929,
4.9424999999999999,0.15080630779266357,
4.9450000000000003,0.16467770934104919,
4.9474999999999998,0.17133693397045135,
4.9500000000000002,0.17756342887878418,
4.9524999999999997,0.18330912292003632,
4.9550000000000001,0.19328594207763672,
4.9574999999999996,0.19722859561443329,
4.96,0.20040194690227509,
4.9625000000000004,0.20268580317497253,
4.9649999999999999,0.20439267158508301,
4.9675000000000002,0.20395994186401367,
4.9699999999999998,0.20273387432098389,
4.9725000000000001,0.2007625550031662,
4.9749999999999996,0.19472837448120117,
4.9775,0.19032895565032959,
4.9800000000000004,0.18491983413696289,
4.9824999999999999,0.17840485274791718,
4.9850000000000003,0.16212940216064453,
4.9874999999999998,0.15284976363182068,
4.9900000000000002,0.14316141605377197,
4.9924999999999997,0.13325671851634979,
4.9950000000000001,0.11359155178070068,
4.9974999999999996,0.1036868542432785,
5,0.09368598461151123,83.333335876464844
5.0025000000000004,0.083468757569789886,
5.0049999999999999,0.062385201454162598,
5.0075000000000003,0.05197564885020256,
5.0099999999999998,0.041998825967311859,
5.0125000000000002,0.032671093940734863,
5.0149999999999997,0.016684135422110558,
5.0175000000000001,0.0097604598850011826,
5.0199999999999996,0.0033175945281982422,
5.0225,-0.0030050675850361586,
5.0250000000000004,-0.016251405701041222,
5.0274999999999999,-0.023247202858328819,
5.0300000000000002,-0.030363202095031738,
5.0324999999999998,-0.037407081574201584,
5.0350000000000001,-0.050028365105390549,
5.0374999999999996,-0.055293243378400803,
5.04,-0.059620540589094162,
5.0425000000000004,-0.062986217439174652,
5.0449999999999999,-0.066904827952384949,
5.0475000000000003,-0.067385636270046234,
5.0499999999999998,-0.067025028169155121,
5.0525000000000002,-0.065943203866481781,
5.0549999999999997,-0.062385201454162598,
5.0575000000000001,-0.060534082353115082,
5.0599999999999996,-0.05892336368560791,
5.0625,-0.057697296142578125,
5.0650000000000004,-0.056543350219726562,
5.0674999999999999,-0.056278906762599945,
5.0700000000000003,-0.056086581200361252,
5.0724999999999998,-0.055894255638122559,
5.0750000000000002,-0.055605769157409668,
5.0774999999999997,-0.056086581200361252,
5.0800000000000001,-0.057288609445095062,
5.0824999999999996,-0.059356093406677246,
5.085,-0.065967246890068054,
5.0875000000000004,-0.069765649735927582,
5.0899999999999999,-0.073275566101074219,
5.0925000000000002,-0.075992152094841003,
5.0949999999999998,-0.077578827738761902,
5.0975000000000001,-0.076424881815910339,
5.0999999999999996,-0.074237190186977386,
5.1025,-0.07135232537984848,
5.1050000000000004,-0.065294109284877777,
5.1074999999999999,-0.062625609338283539,
5.1100000000000003,-0.060461960732936859,
5.1124999999999998,-0.058947406709194183,
5.1150000000000002,-0.057889621704816818,
5.1174999999999997,-0.05858679860830307,
5.1200000000000001,-0.060053270310163498,
5.1224999999999996,-0.062240958213806152,
5.125,-0.068058773875236511,
5.1275000000000004,-0.070775352418422699,
5.1299999999999999,-0.072722636163234711,
5.1325000000000003,-0.07346789538860321,
5.1349999999999998,-0.070078179240226746,
5.1375000000000002,-0.066087447106838226,
5.1399999999999997,-0.060966812074184418,
5.1425000000000001,-0.05522112175822258,
5.1449999999999996,-0.044306717813014984,
5.1475,-0.040075581520795822,
5.1500000000000004,-0.037190716713666916,
5.1524999999999999,-0.035868488252162933,
5.1550000000000002,-0.037623446434736252,
5.1574999999999998,-0.040556393563747406,
5.1600000000000001,-0.044378839433193207,
5.1624999999999996,-0.048706136643886566,
5.165,-0.056855879724025726,
5.1675000000000004,-0.059524379670619965,
5.1699999999999999,-0.06075044721364975,
5.1725000000000003,-0.060341756790876389,
5.1749999999999998,-0.058298312127590179,
5.1775000000000002,-0.051158271729946136,
5.1799999999999997,-0.04723966121673584,
5.1825000000000001,-0.043946109712123871,
5.1849999999999996,-0.041349731385707855,
5.1875,-0.042311351746320724,
5.1900000000000004,-0.044715404510498047,
5.1924999999999999,-0.04815320298075676,
5.1950000000000003,-0.056038498878479004,
5.1974999999999998,-0.059572458267211914,
5.2000000000000002,-0.062144797295331955,
5.2024999999999997,-0.063418947160243988,
5.2050000000000001,-0.061183176934719086,
5.2074999999999996,-0.057432852685451508,
5.21,-0.052167974412441254,
5.2125000000000004,-0.045773189514875412,
5.2149999999999999,-0.031949877738952637,
5.2175000000000002,-0.026083987206220627,
5.2199999999999998,-0.021732648834586143,
5.2225000000000001,-0.01937667652964592,
5.2249999999999996,-0.020987391471862793,
5.2275,-0.024184783920645714,
5.2300000000000004,-0.028247635811567307,
5.2324999999999999,-0.032502811402082443,
5.2350000000000003,-0.03937840461730957,
5.2374999999999998,-0.041566096246242523,
5.2400000000000002,-0.04291236400604248,
5.2424999999999997,-0.04365762323141098,
5.2450000000000001,-0.044450961053371429,
5.2474999999999996,-0.044811569154262543,
5.25,-0.045268338173627853,
5.2525000000000004,-0.04582127183675766,
5.2549999999999999,-0.046806931495666504,
5.2575000000000003,-0.047215621918439865,
5.2599999999999998,-0.047456026077270508,
5.2625000000000002,-0.047552190721035004,
5.2649999999999997,-0.047287743538618088,
5.2675000000000001,-0.046710770577192307,
5.2699999999999996,-0.045869350433349609,
5.2725,-0.044811569154262543,
5.2750000000000004,-0.042431555688381195,
5.2774999999999999,-0.041590135544538498,
5.2800000000000002,-0.041229527443647385,
5.2824999999999998,-0.041421853005886078,
5.2850000000000001,-0.043441258370876312,
5.2874999999999996,-0.04473944753408432,
5.29,-0.045893393456935883,
5.2925000000000004,-0.046638648957014084,
5.2949999999999999,-0.046686731278896332,
5.2975000000000003,-0.045100055634975433,
5.2999999999999998,-0.043633580207824707,
5.3025000000000002,-0.041902661323547363,
5.3049999999999997,-0.038176380097866058,
5.3075000000000001,-0.036132931709289551,
5.3099999999999996,-0.033993326127529144,
5.3125,-0.031829677522182465,
5.3150000000000004,-0.028055310249328613,
5.3174999999999999,-0.027165811508893967,
5.3200000000000003,-0.027310054749250412,
5.3224999999999998,-0.028704404830932617,
5.3250000000000002,-0.035051107406616211,
5.3274999999999997,-0.039113961160182953,
5.3300000000000001,-0.043008528649806976,
5.3324999999999996,-0.046061675995588303,
5.335,-0.04752814769744873,
5.3375000000000004,-0.045677028596401215,
5.3399999999999999,-0.042215190827846527,
5.3425000000000002,-0.037599407136440277,
5.3449999999999998,-0.027021568268537521,
5.3475000000000001,-0.021949013695120811,
5.3499999999999996,-0.017549594864249229,
5.3525,-0.014039675705134869,
5.3550000000000004,-0.010121067985892296,
5.3574999999999999,-0.0098566217347979546,
5.3600000000000003,-0.010577837936580181,
5.3624999999999998,-0.012188553810119629,
5.3650000000000002,-0.017237067222595215,
5.3674999999999997,-0.020025771111249924,
5.3700000000000001,-0.022622149437665939,
5.3724999999999996,-0.024809837341308594,
5.375,-0.027286013588309288,
5.3775000000000004,-0.027646621689200401,
5.3799999999999999,-0.027382176369428635,
5.3825000000000003,-0.026492675766348839,
5.3849999999999998,-0.022742351517081261,
5.3875000000000002,-0.01954495906829834,
5.3899999999999997,-0.01538594625890255,
5.3925000000000001,-0.010337432846426964,
5.3949999999999996,0.0014905135612934828,
5.3975,0.0071640810929238796,
5.4000000000000004,0.011972188949584961,
5.4024999999999999,0.015361905097961426,
5.4050000000000002,0.016660094261169434,
5.4074999999999998,0.014688770286738873,
5.4100000000000001,0.011275013908743858,
5.4124999999999996,0.0068996353074908257,
5.415,0.0019953649025410414,
5.4175000000000004,-0.0081497430801391602,
5.4199999999999999,-0.013078054413199425,
5.4225000000000003,-0.01783808134496212,
5.4249999999999998,-0.027165811508893967,
5.4275000000000002,-0.031661391258239746,
5.4299999999999997,-0.036108892410993576,
5.4325000000000001,-0.040412150323390961,
5.4349999999999996,-0.048249363899230957,
5.4375,-0.051711201667785645,
5.4400000000000004,-0.054644148796796799,
5.4424999999999999,-0.056831836700439453,
5.4450000000000003,-0.057937704026699066,
5.4474999999999998,-0.056182742118835449,
5.4500000000000002,-0.052793025970458984,
5.4524999999999997,-0.047936838120222092,
5.4550000000000001,-0.036253135651350021,
5.4574999999999996,-0.031517148017883301,
5.46,-0.029089054092764854,
5.4625000000000004,-0.030218958854675293,
5.4649999999999999,-0.046302080154418945,
5.4675000000000002,-0.061495702713727951,
5.4699999999999998,-0.080728136003017426,
5.4725000000000001,-0.10274927318096161,
5.4749999999999996,-0.14746467769145966,
5.4775,-0.16575953364372253,
5.4800000000000004,-0.17799615859985352,
5.4824999999999999,-0.18174648284912109,
5.4850000000000003,-0.1551576554775238,
5.4874999999999998,-0.121404729783535,
5.4900000000000002,-0.072939001023769379,
5.4924999999999997,-0.010048946365714073,
5.4950000000000001,0.065967246890068054,
5.4974999999999996,0.24593472480773926,
5.5,0.34164011478424072,
5.5025000000000004,0.43429237604141235,
5.5049999999999999,0.58750271797180176,
5.5075000000000003,0.63738685846328735,
5.5099999999999998,0.66351890563964844,
5.5125000000000002,0.66315829753875732,
5.5149999999999997,0.58091562986373901,
5.5175000000000001,0.50271177291870117,
5.5199999999999996,0.40558797121047974,
5.5225,0.29572269320487976,
5.5250000000000004,0.06678462028503418,
5.5274999999999999,-0.037575364112854004,
5.5300000000000002,-0.12698213756084442,
5.5324999999999998,-0.19715647399425507,
5.5350000000000001,-0.27300438284873962,
5.5374999999999996,-0.28050503134727478,
5.54,-0.27163407206535339,
5.5425000000000004,-0.25057455897331238,
5.5449999999999999,-0.18989622592926025,
5.5475000000000003,-0.15799443423748016,
5.5499999999999998,-0.12895345687866211,
5.5525000000000002,-0.10435998439788818,
5.5549999999999997,-0.070655152201652527,
5.5575000000000001,-0.061111055314540863,
5.5599999999999996,-0.055317282676696777,
5.5625,-0.052288174629211426,
5.5650000000000004,-0.050533216446638107,
5.5674999999999999,-0.049932204186916351,
5.5700000000000003,-0.048706136643886566,
5.5724999999999998,-0.046494405716657639,
5.5750000000000002,-0.043152771890163422,
5.5774999999999997,-0.034233730286359787,
5.5800000000000001,-0.029449662193655968,
5.5824999999999996,-0.02507428452372551,
5.585,-0.018992027267813683,
5.5875000000000004,-0.01738131046295166,
5.5899999999999999,-0.016660094261169434,
5.5925000000000002,-0.016515851020812988,
5.5949999999999998,-0.016539892181754112,
5.5975000000000001,-0.016275446861982346,
5.5999999999999996,-0.015554229728877544,
5.6025,-0.01430412195622921,
5.6050000000000004,-0.01060187816619873,
5.6074999999999999,-0.0083180274814367294,
5.6100000000000003,-0.0060582160949707031,
5.6124999999999998,-0.0041109323501586914,
5.6150000000000002,-0.0020194053649902344,
5.6174999999999997,-0.0023319325409829617,
5.6200000000000001,-0.0035099189262837172,
5.6224999999999996,-0.0053369998931884766,
5.625,-0.0090873241424560547,
5.6275000000000004,-0.0097364187240600586,
5.6299999999999999,-0.0088950004428625107,
5.6325000000000003,-0.0061543784104287624,
5.6349999999999998,0.0049523515626788139,
5.6375000000000002,0.012525121681392193,
5.6399999999999997,0.020674865692853928,
5.6425000000000001,0.028752487152814865,
5.6449999999999996,0.042599838227033615,
5.6475,0.04798492044210434,
5.6500000000000004,0.052240096032619476,
5.6524999999999999,0.055557690560817719,
5.6550000000000002,0.060173474252223969,
5.6574999999999998,0.061615906655788422,
5.6600000000000001,0.062673687934875488,
5.6624999999999996,0.063418947160243988,
5.665,0.064572893083095551,
5.6675000000000004,0.065558552742004395,
5.6699999999999999,0.067049071192741394,
5.6725000000000003,0.069284841418266296,
5.6749999999999998,0.076136395335197449,
5.6775000000000002,0.080343484878540039,
5.6799999999999997,0.084790989756584167,
5.6825000000000001,0.089214444160461426,
5.6849999999999996,0.097508430480957031,
5.6875,0.10161936283111572,
5.6900000000000004,0.10597070306539536,
5.6924999999999999,0.11080285161733627,
5.6950000000000003,0.12263079732656479,
5.6974999999999998,0.12941023707389832,
5.7000000000000002,0.13652622699737549,
5.7024999999999997,0.14366626739501953,
5.7050000000000001,0.15664815902709961,
5.7074999999999996,0.16222557425498962,
5.71,0.16703367233276367,
5.7125000000000004,0.17112056910991669,
5.7149999999999999,0.17775575816631317,
5.7175000000000002,0.18037617206573486,
5.7199999999999998,0.18275618553161621,
5.7225000000000001,0.18491983413696289,
5.7249999999999996,0.1891028881072998,
5.7275,0.19136270880699158,
5.7300000000000004,0.19374272227287292,
5.7324999999999999,0.19607464969158173,
5.7350000000000003,0.19965669512748718,
5.7374999999999998,0.19989709556102753,
5.7400000000000002,0.1986229419708252,
5.7424999999999997,0.19542555510997772,
5.7450000000000001,0.18268406391143799,
5.7474999999999996,0.17345249652862549,
5.75,0.16263425350189209,
5.7525000000000004,0.150686115026474,
5.7549999999999999,0.12489061057567596,
5.7575000000000003,0.11150002479553223,
5.7599999999999998,0.098133489489555359,
5.7625000000000002,0.084959268569946289,
5.7649999999999997,0.060029231011867523,
5.7675000000000001,0.048802297562360764,
5.7699999999999996,0.038561027497053146,
5.7725,0.029401581734418869,
5.7750000000000004,0.013679067604243755,
5.7774999999999999,0.0063467025756835938,
5.7800000000000002,-0.0010818243026733398,
5.7824999999999998,-0.00891904067248106,
5.7850000000000001,-0.026035904884338379,
5.7874999999999996,-0.034690499305725098,
5.79,-0.042840242385864258,
5.7925000000000004,-0.049908161163330078,
5.7949999999999999,-0.059235893189907074,
5.7975000000000003,-0.061399541795253754,
5.7999999999999998,-0.062072675675153732,
5.8025000000000002,-0.061784189194440842,
5.8049999999999997,-0.061111055314540863,
5.8075000000000001,-0.060389839112758636,
5.8099999999999996,-0.061135094612836838,
5.8125,-0.062841974198818207,
5.8150000000000004,-0.068779990077018738,
5.8174999999999999,-0.072674557566642761,
5.8200000000000003,-0.076665282249450684,
5.8224999999999998,-0.080367527902126312,
5.8250000000000002,-0.085440084338188171,
5.8274999999999997,-0.086089178919792175,
5.8300000000000001,-0.085416041314601898,
5.8324999999999996,-0.083516836166381836,
5.835,-0.077362462878227234,
5.8375000000000004,-0.074237190186977386,
5.8399999999999999,-0.071712933480739594,
5.8425000000000002,-0.070174336433410645,
5.8449999999999998,-0.069837771356105804,
5.8475000000000001,-0.072193741798400879,
5.8499999999999996,-0.074405476450920105,
5.8525,-0.076857611536979675,
5.8550000000000004,-0.081401273608207703,
5.8574999999999999,-0.083348557353019714,
5.8600000000000003,-0.084959268569946289,
5.8624999999999998,-0.086233422160148621,
5.8650000000000002,-0.087531611323356628,
5.8674999999999997,-0.087171003222465515,
5.8700000000000001,-0.086017057299613953,
5.8724999999999996,-0.084045730531215668,
5.875,-0.07808367908000946,
5.8775000000000004,-0.07488628476858139,
5.8799999999999999,-0.072001419961452484,
5.8825000000000003,-0.069789692759513855,
5.8849999999999998,-0.068082809448242188,
5.8875000000000002,-0.068323217332363129,
5.8899999999999997,-0.068996354937553406,
5.8925000000000001,-0.069789692759513855,
5.8949999999999996,-0.07060706615447998,
5.8975,-0.070558987557888031,
5.9000000000000004,-0.070198379456996918,
5.9024999999999999,-0.069621406495571136,
5.9050000000000002,-0.06815493106842041,
5.9074999999999998,-0.067145228385925293,
5.9100000000000001,-0.06599128246307373,
5.9124999999999996,-0.0646209716796875,
5.915,-0.061543785035610199,
5.9175000000000004,-0.060341756790876389,
5.9199999999999999,-0.059620540589094162,
5.9225000000000003,-0.059596501290798187,
5.9249999999999998,-0.061928432434797287,
5.9275000000000002,-0.063899755477905273,
5.9299999999999997,-0.066087447106838226,
5.9325000000000001,-0.068106852471828461,
5.9349999999999996,-0.07060706615447998,
5.9375,-0.070967674255371094,
5.9400000000000004,-0.070679187774658203,
5.9424999999999999,-0.069861814379692078,
5.9450000000000003,-0.067145228385925293,
5.9474999999999998,-0.065342187881469727,
5.9500000000000002,-0.063418947160243988,
5.9524999999999997,-0.061447620391845703,
5.9550000000000001,-0.058105986565351486,
5.9574999999999996,-0.057240527123212814,
5.96,-0.057072244584560394,
5.9625000000000004,-0.057625174522399902,
5.9649999999999999,-0.060221552848815918,
5.9675000000000002,-0.061423581093549728,
5.9699999999999998,-0.062024593353271484,
5.9725000000000001,-0.061688028275966644,
5.9749999999999996,-0.05784153938293457,
5.9775,-0.054932635277509689,
5.9800000000000004,-0.051951609551906586,
5.9824999999999999,-0.049451392143964767,
5.9850000000000003,-0.047840677201747894,
5.9874999999999998,-0.048922501504421234,
5.9900000000000002,-0.051158271729946136,
5.9924999999999997,-0.054067175835371017,
5.9950000000000001,-0.059788823127746582,
5.9974999999999996,-0.061712067574262619,
6,-0.062409244477748871,82.677162170410156
6.0025000000000004,-0.061808228492736816,
6.0049999999999999,-0.057072244584560394,
6.0075000000000003,-0.053442120552062988,
6.0099999999999998,-0.049715839326381683,
6.0125000000000002,-0.046398244798183441,
6.0149999999999997,-0.043321054428815842,
6.0175000000000001,-0.044402878731489182,
6.0199999999999996,-0.047287743538618088,
6.0225,-0.051711201667785645,
6.0250000000000004,-0.062601566314697266,
6.0274999999999999,-0.067289471626281738,
6.0300000000000002,-0.070486865937709808,
6.0324999999999998,-0.071616768836975098,
6.0350000000000001,-0.067433714866638184,
6.0374999999999996,-0.062938138842582703,
6.04,-0.057745378464460373,
6.0425000000000004,-0.052672825753688812,
6.0449999999999999,-0.045580863952636719,
6.0475000000000003,-0.044210553169250488,
6.0499999999999998,-0.044426918029785156,
6.0525000000000002,-0.04598955437541008,
6.0549999999999997,-0.051999688148498535,
6.0575000000000001,-0.055894255638122559,
6.0599999999999996,-0.059933066368103027,
6.0625,-0.063827633857727051,
6.0650000000000004,-0.070006057620048523,
6.0674999999999999,-0.071592733263969421,
6.0700000000000003,-0.071905255317687988,
6.0724999999999998,-0.070871517062187195,
6.0750000000000002,-0.065077744424343109,
6.0774999999999997,-0.061111055314540863,
6.0800000000000001,-0.056976079940795898,
6.0824999999999996,-0.053129594773054123,
6.085,-0.047480069100856781,
6.0875000000000004,-0.045725107192993164,
6.0899999999999999,-0.044643282890319824,
6.0925000000000002,-0.043946109712123871,
6.0949999999999998,-0.042888324707746506,
6.0975000000000001,-0.042383473366498947,
6.0999999999999996,-0.041758418083190918,
6.1025,-0.041061244904994965,
6.1050000000000004,-0.039474569261074066,
6.1074999999999999,-0.038440823554992676,
6.1100000000000003,-0.037334959954023361,
6.1124999999999998,-0.036108892410993576,
6.1150000000000002,-0.033969283103942871,
6.1174999999999997,-0.033608675003051758,
6.1200000000000001,-0.033945243805646896,
6.1224999999999996,-0.035171311348676682,
6.125,-0.040315985679626465,
6.1275000000000004,-0.04370570182800293,
6.1299999999999999,-0.047311782836914062,
6.1325000000000003,-0.050749581307172775,
6.1349999999999998,-0.055990420281887054,
6.1375000000000002,-0.057577095925807953,
6.1399999999999997,-0.058226190507411957,
6.1425000000000001,-0.057865582406520844,
6.1449999999999996,-0.053658485412597656,
6.1475,-0.04935523122549057,
6.1500000000000004,-0.043513379991054535,
6.1524999999999999,-0.036156974732875824,
6.1550000000000002,-0.018270811066031456,
6.1574999999999998,-0.009039243683218956,
6.1600000000000001,-0.00055293244076892734,
6.1624999999999996,0.0064188241958618164,
6.165,0.013510784134268761,
6.1675000000000004,0.01322229765355587,
6.1699999999999999,0.010385513305664062,
6.1725000000000003,0.0053129596635699272,
6.1749999999999998,-0.0095921754837036133,
6.1775000000000002,-0.018559297546744347,
6.1799999999999997,-0.027766823768615723,
6.1825000000000001,-0.036782026290893555,
6.1849999999999996,-0.052648782730102539,
6.1875,-0.058803163468837738,
6.1900000000000004,-0.063683390617370605,
6.1924999999999999,-0.067313514649868011,
6.1950000000000003,-0.072025462985038757,
6.1974999999999998,-0.073900625109672546,
6.2000000000000002,-0.075799822807312012,
6.2024999999999997,-0.07779519259929657,
6.2050000000000001,-0.081232987344264984,
6.2074999999999996,-0.081641674041748047,
6.21,-0.08063197135925293,
6.2125000000000004,-0.077891349792480469,
6.2149999999999999,-0.068082809448242188,
6.2175000000000002,-0.062649652361869812,
6.2199999999999998,-0.058370433747768402,
6.2225000000000001,-0.05659143254160881,
6.2249999999999996,-0.064957544207572937,
6.2275,-0.076136395335197449,
6.2300000000000004,-0.091834865510463715,
6.2324999999999999,-0.11113941669464111,
6.2350000000000003,-0.15462875366210938,
6.2374999999999998,-0.17511129379272461,
6.2400000000000002,-0.19179543852806091,
6.2424999999999997,-0.20251750946044922,
6.2450000000000001,-0.19797384738922119,
6.2474999999999996,-0.1791260689496994,
6.25,-0.1476089209318161,
6.2525000000000004,-0.10289351642131805,
6.2549999999999999,0.024545392021536827,
6.2575000000000003,0.10409554094076157,
6.2599999999999998,0.1906895637512207,
6.2625000000000002,0.28038483858108521,
6.2649999999999997,0.45013508200645447,
6.2675000000000001,0.51978051662445068,
6.2699999999999996,0.57226103544235229,
6.2725,0.60310506820678711,
6.2750000000000004,0.58839225769042969,
6.2774999999999999,0.54132086038589478,
6.2800000000000002,0.47037720680236816,
6.2824999999999998,0.37996074557304382,
6.2850000000000001,0.16643266379833221,
6.2874999999999996,0.058274269104003906,
6.29,-0.041157405823469162,
6.2925000000000004,-0.12592434883117676,
6.2949999999999999,-0.23742437362670898,
6.2975000000000003,-0.26254674792289734,
6.2999999999999998,-0.26944637298583984,
6.3025000000000002,-0.2616572380065918,
6.3049999999999997,-0.21939396858215332,
6.3075000000000001,-0.19326190650463104,
6.3099999999999996,-0.1684039831161499,
6.3125,-0.14691174030303955,
6.3150000000000004,-0.11782269179821014,
6.3174999999999999,-0.11008163541555405,
6.3200000000000003,-0.10575433820486069,
6.3224999999999998,-0.10375897586345673,
6.3250000000000002,-0.10243674367666245,
6.3274999999999997,-0.10137896239757538,
6.3300000000000001,-0.099503800272941589,
6.3324999999999996,-0.096667014062404633,
6.335,-0.08873363584280014,
6.3375000000000004,-0.084334217011928558,
6.3399999999999999,-0.079862676560878754,
6.3425000000000002,-0.075463257730007172,
6.3449999999999998,-0.066424012184143066,
6.3475000000000001,-0.061255298554897308,
6.3499999999999996,-0.055485568940639496,
6.3525,-0.049090784043073654,
6.3550000000000004,-0.035483837127685547,
6.3574999999999999,-0.029305418953299522,
6.3600000000000003,-0.024208825081586838,
6.3624999999999998,-0.020674865692853928,
6.3650000000000002,-0.018775662407279015,
6.3674999999999997,-0.019929608330130577,
6.3700000000000001,-0.02199709415435791,
6.3724999999999996,-0.024377107620239258,
6.375,-0.028295716270804405,
6.3775000000000004,-0.029449662193655968,
6.3799999999999999,-0.029930472373962402,
6.3825000000000003,-0.029882391914725304,
6.3849999999999998,-0.028680365532636642,
6.3875000000000002,-0.027622580528259277,
6.3899999999999997,-0.026420554146170616,
6.3925000000000001,-0.025026202201843262,
6.3949999999999996,-0.02199709415435791,
6.3975,-0.02062678337097168,
6.4000000000000004,-0.019352635368704796,
6.4024999999999999,-0.018198689445853233,
6.4050000000000002,-0.015746554359793663,
6.4074999999999998,-0.013871392235159874,
6.4100000000000001,-0.011323094367980957,
6.4124999999999996,-0.0078852977603673935,
6.415,0.0014424324035644531,
6.4175000000000004,0.0067313513718545437,
6.4199999999999999,0.012020270340144634,
6.4225000000000003,0.016828378662467003,
6.4249999999999998,0.024112662300467491,
6.4275000000000002,0.026564797386527061,
6.4299999999999997,0.028319757431745529,
6.4325000000000001,0.029738148674368858,
6.4349999999999996,0.032743215560913086,
6.4375,0.03476262092590332,
6.4400000000000004,0.037527285516262054,
6.4424999999999999,0.041133366525173187,
6.4450000000000003,0.051302514970302582,
6.4474999999999998,0.058033864945173264,
6.4500000000000002,0.06565471738576889,
6.4524999999999997,0.073996782302856445,
6.4550000000000001,0.091257892549037933,
6.4574999999999996,0.099167227745056152,
6.46,0.10613898932933807,
6.4625000000000004,0.11188467592000961,
6.4649999999999999,0.1199142187833786,
6.4675000000000002,0.12279908359050751,
6.4699999999999998,0.12534737586975098,
6.4725000000000001,0.12796780467033386,
6.4749999999999996,0.1339058130979538,
6.4775,0.13700704276561737,
6.4800000000000004,0.1399640291929245,
6.4824999999999999,0.14248828589916229,
6.4850000000000003,0.14563760161399841,
6.4874999999999998,0.14638285338878632,
6.4900000000000002,0.14662325382232666,
6.4924999999999997,0.14659921824932098,
6.4950000000000001,0.14590203762054443,
6.4974999999999996,0.14501254260540009,
6.5,0.14357011020183563,
6.5025000000000004,0.14135837554931641,
6.5049999999999999,0.1339058130979538,
6.5075000000000003,0.128592848777771,
6.5099999999999998,0.12212594598531723,
6.5125000000000002,0.11455317586660385,
6.5149999999999997,0.096065998077392578,
6.5175000000000001,0.084983311593532562,
6.5199999999999996,0.072794757783412933,
6.5225,0.059596501290798187,
6.5250000000000004,0.031493108719587326,
6.5274999999999999,0.017669796943664551,
6.5300000000000002,0.0046398243866860867,
6.5324999999999998,-0.007140040397644043,
6.5350000000000001,-0.026132067665457726,
6.5374999999999996,-0.033608675003051758,
6.54,-0.040075581520795822,
6.5425000000000004,-0.04598955437541008,
6.5449999999999999,-0.057697296142578125,
6.5475000000000003,-0.063827633857727051,
6.5499999999999998,-0.070222422480583191,
6.5525000000000002,-0.076761446893215179,
6.5549999999999997,-0.089286565780639648,
6.5575000000000001,-0.094936095178127289,
6.5599999999999996,-0.099720165133476257,
6.5625,-0.10351856797933578,
6.5650000000000004,-0.1076054573059082,
6.5674999999999999,-0.1077016219496727,
6.5700000000000003,-0.10678808391094208,
6.5724999999999998,-0.10515332221984863,
6.5750000000000002,-0.10169148445129395,
6.5774999999999997,-0.10101835429668427,
6.5800000000000001,-0.10152320563793182,
6.5824999999999996,-0.10344644635915756,
6.585,-0.11073072999715805,
6.5875000000000004,-0.11505802720785141,
6.5899999999999999,-0.11914491653442383,
6.5925000000000002,-0.12239038944244385,
6.5949999999999998,-0.12527525424957275,
6.5975000000000001,-0.12498676776885986,
6.5999999999999996,-0.12378474324941635,
6.6025,-0.12210190296173096,
6.6050000000000004,-0.11839966475963593,
6.6074999999999999,-0.11666874587535858,
6.6100000000000003,-0.11527439206838608,
6.6124999999999998,-0.11416852474212646,
6.6150000000000002,-0.11339922994375229,
6.6174999999999997,-0.11414448916912079,
6.6200000000000001,-0.11575520038604736,
6.6224999999999996,-0.1183275431394577,
6.625,-0.12551566958427429,
6.6275000000000004,-0.12926599383354187,
6.6299999999999999,-0.13251146674156189,
6.6325000000000003,-0.13462702929973602,
6.6349999999999998,-0.1344587504863739,
6.6375000000000002,-0.13217489421367645,
6.6399999999999997,-0.12873709201812744,
6.6425000000000001,-0.12465020269155502,
6.6449999999999996,-0.11654853820800781,
6.6475,-0.11330306529998779,
6.6500000000000004,-0.11104325950145721,
6.6524999999999999,-0.10979314893484116,
6.6550000000000002,-0.11008163541555405,
6.6574999999999998,-0.11130770295858383,
6.6600000000000001,-0.11277417838573456,
6.6624999999999996,-0.11424064636230469,
6.665,-0.11570712178945541,
6.6675000000000004,-0.11520227044820786,
6.6699999999999999,-0.1138560026884079,
6.6725000000000003,-0.11178851127624512,
6.6749999999999998,-0.10678808391094208,
6.6775000000000002,-0.10481675714254379,
6.6799999999999997,-0.10361473262310028,
6.6825000000000001,-0.10337432473897934,
6.6849999999999996,-0.10541777312755585,
6.6875,-0.10693232715129852,
6.6900000000000004,-0.10827859491109848,
6.6924999999999999,-0.10904788970947266,
6.6950000000000003,-0.10830263793468475,
6.6974999999999998,-0.10702848434448242,
6.7000000000000002,-0.10544180870056152,
6.7024999999999997,-0.1038791760802269,
6.7050000000000001,-0.10166744887828827,
6.7074999999999996,-0.10104238986968994,
6.71,-0.10072986781597137,
6.7125000000000004,-0.10056158155202866,
6.7149999999999999,-0.10048945993185043,
6.7175000000000002,-0.10063370317220688,
6.7199999999999998,-0.10085006803274155,
6.7225000000000001,-0.10125875473022461,
6.7249999999999996,-0.10224442183971405,
6.7275,-0.10243674367666245,
6.7300000000000004,-0.102292500436306,
6.7324999999999999,-0.10166744887828827,
6.7350000000000003,-0.099239349365234375,
6.7374999999999998,-0.097869038581848145,
6.7400000000000002,-0.096618935465812683,
6.7424999999999997,-0.095753476023674011,
6.7450000000000001,-0.095440946519374847,
6.7474999999999996,-0.095729433000087738,
6.75,-0.096210241317749023,
6.7525000000000004,-0.09659489244222641,
6.7549999999999999,-0.096907421946525574,
6.7575000000000003,-0.09693145751953125,
6.7599999999999998,-0.096883378922939301,
6.7625000000000002,-0.096859335899353027,
6.7649999999999997,-0.096715092658996582,
6.7675000000000001,-0.096306405961513519,
6.7699999999999996,-0.095585189759731293,
6.7725,-0.094503365457057953,
6.7750000000000004,-0.091906987130641937,
6.7774999999999999,-0.091113649308681488,
6.7800000000000002,-0.091041527688503265,
6.7824999999999998,-0.092075273394584656,
6.7850000000000001,-0.097700759768486023,
6.7874999999999996,-0.10185977071523666,
6.79,-0.10642747581005096,
6.7925000000000004,-0.11085093021392822,
6.7949999999999999,-0.11746208369731903,
6.7975000000000003,-0.11909683793783188,
6.7999999999999998,-0.11928915977478027,
6.8025000000000002,-0.11815925687551498,
6.8049999999999997,-0.11224528402090073,
6.8075000000000001,-0.10784586519002914,
6.8099999999999996,-0.10301371663808823,
6.8125,-0.098037324845790863,
6.8150000000000004,-0.089502930641174316,
6.8174999999999999,-0.086810395121574402,
6.8200000000000003,-0.085440084338188171,
6.8224999999999998,-0.085488162934780121,
6.8250000000000002,-0.08878171443939209,
6.8274999999999997,-0.091113649308681488,
6.8300000000000001,-0.093373462557792664,
6.8324999999999996,-0.095128417015075684,
6.835,-0.096522770822048187,
6.8375000000000004,-0.096402570605278015,
6.8399999999999999,-0.095897719264030457,
6.8425000000000002,-0.095224581658840179,
6.8449999999999998,-0.093517705798149109,
6.8475000000000001,-0.092123351991176605,
6.8499999999999996,-0.090224146842956543,
6.8525,-0.087555646896362305,
6.8550000000000004,-0.08024732768535614,
6.8574999999999999,-0.076232552528381348,
6.8600000000000003,-0.072506271302700043,
6.8624999999999998,-0.069573327898979187,
6.8650000000000002,-0.067505836486816406,
6.8674999999999997,-0.068515539169311523,
6.8700000000000001,-0.070775352418422699,
6.8724999999999996,-0.073876582086086273,
6.875,-0.08092045783996582,
6.8775000000000004,-0.084021687507629395,
6.8799999999999999,-0.08628150075674057,
6.8825000000000003,-0.087387368083000183,
6.8849999999999998,-0.085391998291015625,
6.8875000000000002,-0.082074403762817383,
6.8899999999999997,-0.077434584498405457,
6.8925000000000001,-0.071736976504325867,
6.8949999999999996,-0.059163771569728851,
6.8975,-0.053538285195827484,
6.9000000000000004,-0.049018662422895432,
6.9024999999999999,-0.046061675995588303,
6.9050000000000002,-0.045604906976222992,
6.9074999999999998,-0.047960877418518066,
6.9100000000000001,-0.051903527230024338,
6.9124999999999996,-0.057072244584560394,
6.915,-0.070150300860404968,
6.9175000000000004,-0.077626906335353851,
6.9199999999999999,-0.085175633430480957,
6.9225000000000003,-0.092459917068481445,
6.9249999999999998,-0.10421574115753174,
6.9275000000000002,-0.1076054573059082,
6.9299999999999997,-0.10895173251628876,
6.9325000000000001,-0.10811030864715576,
6.9349999999999996,-0.10128279775381088,
6.9375,-0.096618935465812683,
6.9400000000000004,-0.092051230370998383,
6.9424999999999999,-0.088348984718322754,
6.9450000000000003,-0.085175633430480957,
6.9474999999999998,-0.085800692439079285,
6.9500000000000002,-0.087747976183891296,
6.9524999999999997,-0.090656876564025879,
6.9550000000000001,-0.098662376403808594,
6.9574999999999996,-0.10380705446004868,
6.96,-0.10991334915161133,
6.9625000000000004,-0.11738996207714081,
6.9649999999999999,-0.13755998015403748,
6.9675000000000002,-0.15039762854576111,
6.9699999999999998,-0.16489407420158386,
6.9725000000000001,-0.18040022253990173,
6.9749999999999996,-0.21057109534740448,
6.9775,-0.22242307662963867,
6.9800000000000004,-0.22961120307445526,
6.9824999999999999,-0.23006796836853027,
6.9850000000000003,-0.20179629325866699,
6.9874999999999998,-0.1692454069852829,
6.9900000000000002,-0.12284716218709946,
6.9924999999999997,-0.062529444694519043,
6.9950000000000001,0.094022557139396667,
6.9974999999999996,0.18412649631500244,
7,0.27622580528259277,81.395347595214844
7.0025000000000004,0.36471903324127197,
7.0049999999999999,0.5079045295715332,
7.0075000000000003,0.55194675922393799,
7.0099999999999998,0.5719725489616394,
7.0125000000000002,0.565818190574646,
7.0149999999999997,0.47492086887359619,
7.0175000000000001,0.3951784074306488,
7.0199999999999996,0.29899221658706665,
7.0225,0.19278109073638916,
7.0250000000000004,-0.021227797493338585,
7.0274999999999999,-0.11556287854909897,
7.0300000000000002,-0.19443988800048828,
7.0324999999999998,-0.25468549132347107,
7.0350000000000001,-0.31675815582275391,
7.0374999999999996,-0.32180666923522949,
7.04,-0.31372904777526855,
7.0425000000000004,-0.29656410217285156,
7.0449999999999999,-0.24978122115135193,
7.0475000000000003,-0.22590896487236023,
7.0499999999999998,-0.20422439277172089,
7.0525000000000002,-0.18535256385803223,
7.0549999999999997,-0.15602311491966248,
7.0575000000000001,-0.14465193450450897,
7.0599999999999996,-0.13462702929973602,
7.0625,-0.12551566958427429,
7.0650000000000004,-0.10878344625234604,
7.0674999999999999,-0.10099431127309799,
7.0700000000000003,-0.093830227851867676,
7.0724999999999998,-0.087507568299770355,
7.0750000000000002,-0.078612565994262695,
7.0774999999999997,-0.076569125056266785,
7.0800000000000001,-0.076064273715019226,
7.0824999999999996,-0.076953768730163574,
7.085,-0.080728136003017426,
7.0875000000000004,-0.082266733050346375,
7.0899999999999999,-0.082819662988185883,
7.0925000000000002,-0.081906124949455261,
7.0949999999999998,-0.075703665614128113,
7.0975000000000001,-0.071135960519313812,
7.0999999999999996,-0.066351890563964844,
7.1025,-0.062048636376857758,
7.1050000000000004,-0.056928001344203949,
7.1074999999999999,-0.05642315000295639,
7.1100000000000003,-0.057240527123212814,
7.1124999999999998,-0.058899324387311935,
7.1150000000000002,-0.062769852578639984,
7.1174999999999997,-0.063995920121669769,
7.1200000000000001,-0.064116120338439941,
7.1224999999999996,-0.060293674468994141,
7.125,-0.056230824440717697,
7.1275000000000004,-0.050965946167707443,
7.1299999999999999,-0.044955812394618988,
7.1325000000000003,-0.032502811402082443,
7.1349999999999998,-0.027261972427368164,
7.1375000000000002,-0.023319324478507042,
7.1399999999999997,-0.020819108933210373,
7.1425000000000001,-0.01983344554901123,
7.1449999999999996,-0.02108355425298214,
7.1475,-0.022213459014892578,
7.1500000000000004,-0.023006796836853027,
7.1524999999999999,-0.022958716377615929,
7.1550000000000002,-0.019737284630537033,
7.1574999999999998,-0.01675625704228878,
7.1600000000000001,-0.013054013252258301,
7.1624999999999996,-0.00461578369140625,
7.165,4.8081081331474707e-05,
7.1675000000000004,0.0050725541077554226,
7.1699999999999999,0.010457634925842285,
7.1725000000000003,0.016419690102338791,
7.1749999999999998,0.029641985893249512,
7.1775000000000002,0.036517582833766937,
7.1799999999999997,0.043321054428815842,
7.1825000000000001,0.049715839326381683,
7.1849999999999996,0.060942769050598145,
7.1875,0.065823003649711609,
7.1900000000000004,0.070246458053588867,
7.1924999999999999,0.078348122537136078,
7.1950000000000003,0.081978246569633484,
7.1974999999999998,0.085295841097831726,
7.2000000000000002,0.088324949145317078,
7.2024999999999997,0.091017484664916992,
7.2050000000000001,0.096041962504386902,
7.2074999999999996,0.098854705691337585,
7.21,0.1021001785993576,
7.2125000000000004,0.10597070306539536,
7.2149999999999999,0.11532247066497803,
7.2175000000000002,0.12032290548086166,
7.2199999999999998,0.12520313262939453,
7.2225000000000001,0.12955448031425476,
7.2249999999999996,0.13602137565612793,
7.2275,0.13799270987510681,
7.2300000000000004,0.13907453417778015,
7.2324999999999999,0.13933897018432617,
7.2350000000000003,0.13717532157897949,
7.2374999999999998,0.13441066443920135,
7.2400000000000002,0.13041993975639343,
7.2424999999999997,0.12498676776885986,
7.2450000000000001,0.10991334915161133,
7.2474999999999996,0.10053753852844238,
7.25,0.090127989649772644,
7.2525000000000004,0.078949138522148132,
7.2549999999999999,0.055004756897687912,
7.2575000000000003,0.04245559498667717,
7.2599999999999998,0.029810270294547081,
7.2625000000000002,0.017140906304121017,
7.2649999999999997,-0.0073564052581787109,
7.2675000000000001,-0.018751621246337891,
7.2699999999999996,-0.029569864273071289,
7.2725,-0.039787095040082932,
7.2750000000000004,-0.059356093406677246,
7.2774999999999999,-0.069212719798088074,
7.2800000000000002,-0.0791655033826828,
7.2824999999999998,-0.089142322540283203,
7.2850000000000001,-0.10729293525218964,
7.2874999999999996,-0.11412044614553452,
7.29,-0.11864006519317627,
7.2925000000000004,-0.12044310569763184,
7.2949999999999999,-0.11630813777446747,
7.2975000000000003,-0.1115240678191185,
7.2999999999999998,-0.10613898932933807,
7.3025000000000002,-0.10128279775381088,
7.3049999999999997,-0.096426606178283691,
7.3075000000000001,-0.097412273287773132,
7.3099999999999996,-0.10077794641256332,
7.3125,-0.11272609233856201,
7.3150000000000004,-0.12003441900014877,
7.3174999999999999,-0.12722253799438477,
7.3200000000000003,-0.13352116942405701,
7.3224999999999998,-0.14169494807720184,
7.3250000000000002,-0.14289698004722595,
7.3274999999999997,-0.14217576384544373,
7.3300000000000001,-0.13989190757274628,
7.3324999999999996,-0.13239125907421112,
7.335,-0.12854477763175964,
7.3375000000000004,-0.12537142634391785,
7.3399999999999999,-0.12330393493175507,
7.3425000000000002,-0.12253463268280029,
7.3449999999999998,-0.12433767318725586,
7.3475000000000001,-0.1261647641658783,
7.3499999999999996,-0.12806396186351776,
7.3525,-0.13056418299674988,
7.3550000000000004,-0.13102094829082489,
7.3574999999999999,-0.13106903433799744,
7.3600000000000003,-0.13080458343029022,
7.3624999999999998,-0.13051609694957733,
7.3650000000000002,-0.13015548884868622,
7.3674999999999997,-0.1299872100353241,
7.3700000000000001,-0.12984296679496765,
7.3724999999999996,-0.129241943359375,
7.375,-0.12902557849884033,
7.3775000000000004,-0.12902557849884033,
7.3799999999999999,-0.12936215102672577,
7.3825000000000003,-0.13133347034454346,
7.3849999999999998,-0.13267974555492401,
7.3875000000000002,-0.13392984867095947,
7.3899999999999997,-0.13484339416027069,
7.3925000000000001,-0.1346510648727417,
7.3949999999999996,-0.13354520499706268,
7.3975,-0.13191044330596924,
7.4000000000000004,-0.12996315956115723,
7.4024999999999999,-0.12635707855224609,
7.4050000000000002,-0.12498676776885986,
7.4074999999999998,-0.12404918670654297,
7.4100000000000001,-0.12349625676870346,
7.4124999999999996,-0.1231837272644043,
7.415,-0.12275099754333496,
7.4175000000000004,-0.1223423108458519,
7.4199999999999999,-0.12147685140371323,
7.4225000000000003,-0.11784672737121582,
7.4249999999999998,-0.11472146213054657,
7.4275000000000002,-0.11065860837697983,
7.4299999999999997,-0.10589858144521713,
7.4325000000000001,-0.095368824899196625,
7.4349999999999996,-0.090728998184204102,
7.4375,-0.087195038795471191,
7.4400000000000004,-0.085079476237297058,
7.4424999999999999,-0.085752606391906738,
7.4450000000000003,-0.088012419641017914,
7.4474999999999998,-0.090969406068325043,
7.4500000000000002,-0.094166800379753113,
7.4524999999999997,-0.097075700759887695,
7.4550000000000001,-0.10135491937398911,
7.4574999999999996,-0.10284543037414551,
7.46,-0.10407149791717529,
7.4625000000000004,-0.10659575462341309,
7.4649999999999999,-0.10786990821361542,
7.4675000000000002,-0.10899981111288071,
7.4699999999999998,-0.10986527055501938,
7.4725000000000001,-0.11015375703573227,
7.4749999999999996,-0.10873536765575409,
7.4775,-0.10710060596466064,
7.4800000000000004,-0.10493695735931396,
7.4824999999999999,-0.10010480880737305,
7.4850000000000003,-0.09767671674489975,
7.4874999999999998,-0.095416903495788574,
7.4900000000000002,-0.093613862991333008,
7.4924999999999997,-0.091714665293693542,
7.4950000000000001,-0.092147395014762878,
7.4974999999999996,-0.093637906014919281,
7.5,-0.096114084124565125,
7.5025000000000004,-0.099431678652763367,
7.5049999999999999,-0.10671596229076385,
7.5075000000000003,-0.10943254083395004,
7.5099999999999998,-0.11085093021392822,
7.5125000000000002,-0.10825455188751221,
7.5149999999999997,-0.10443210601806641,
7.5175000000000001,-0.099431678652763367,
7.5199999999999996,-0.093782149255275726,
7.5225,-0.083300471305847168,
7.5250000000000004,-0.079333782196044922,
7.5274999999999999,-0.076545082032680511,
7.5300000000000002,-0.075006484985351562,
7.5324999999999998,-0.075030528008937836,
7.5350000000000001,-0.076352760195732117,
7.5374999999999996,-0.078276000916957855,
7.54,-0.080656014382839203,
7.5425000000000004,-0.086425743997097015,
7.5449999999999999,-0.08952697366476059,
7.5475000000000003,-0.092652246356010437,
7.5499999999999998,-0.095753476023674011,
7.5525000000000002,-0.101643405854702,
7.5549999999999997,-0.10457634925842285,
7.5575000000000001,-0.10738909244537354,
7.5599999999999996,-0.10998547077178955,
7.5625,-0.11363963782787323,
7.5650000000000004,-0.1138560026884079,
7.5674999999999999,-0.11255781352519989,
7.5700000000000003,-0.10960082709789276,
7.5724999999999998,-0.10496100038290024,
7.5750000000000002,-0.092291638255119324,
7.5774999999999997,-0.085680484771728516,
7.5800000000000001,-0.079886719584465027,
7.5824999999999996,-0.073684260249137878,
7.585,-0.0738525390625,
7.5875000000000004,-0.076184473931789398,
7.5899999999999999,-0.080319449305534363,
7.5925000000000002,-0.08553624153137207,
7.5949999999999998,-0.09654681384563446,
7.5975000000000001,-0.10094623267650604,
7.5999999999999996,-0.1037830114364624,
7.6025,-0.10351856797933578,
7.6050000000000004,-0.10010480880737305,
7.6074999999999999,-0.094719730317592621,
7.6100000000000003,-0.087868176400661469,
7.6124999999999998,-0.080103084444999695,
7.6150000000000002,-0.065246030688285828,
7.6174999999999997,-0.059740744531154633,
7.6200000000000001,-0.056278906762599945,
7.6224999999999996,-0.05647122859954834,
7.625,-0.059644579887390137,
7.6275000000000004,-0.064188241958618164,
7.6299999999999999,-0.069549284875392914,
7.6325000000000003,-0.080079041421413422,
7.6349999999999998,-0.084502503275871277,
7.6375000000000002,-0.087988376617431641,
7.6399999999999997,-0.090392433106899261,
7.6425000000000001,-0.091738700866699219,
7.6449999999999996,-0.090680919587612152,
7.6475,-0.08810858428478241,
7.6500000000000004,-0.08416593074798584,
7.6524999999999999,-0.07887701690196991,
7.6550000000000002,-0.065678760409355164,
7.6574999999999998,-0.058682959526777267,
7.6600000000000001,-0.052119892090559006,
7.6624999999999996,-0.046542488038539886,
7.665,-0.039474569261074066,
7.6675000000000004,-0.038176380097866058,
