Data Set 1:Time(s),Data Set 1:EKG(mV),Data Set 1:Heart Rate(bpm)
0,-0.084959268569946289,89.887641906738281
0.0025000000000000001,-0.084478460252285004,
0.0050000000000000001,-0.085055433213710785,
0.0074999999999999997,-0.086545944213867188,
0.01,-0.088589392602443695,
0.012500000000000001,-0.090632840991020203,
0.014999999999999999,-0.092700324952602386,
0.017500000000000002,-0.089791417121887207,
0.02,-0.086353622376918793,
0.022499999999999999,-0.081978246569633484,
0.025000000000000001,-0.077025890350341797,
0.0275,-0.06748180091381073,
0.029999999999999999,-0.063635312020778656,
0.032500000000000001,-0.060726404190063477,
0.035000000000000003,-0.058827202767133713,
0.037499999999999999,-0.057601135224103928,
0.040000000000000001,-0.057913661003112793,
0.042500000000000003,-0.05858679860830307,
0.044999999999999998,-0.059404175728559494,
0.047500000000000001,-0.060870647430419922,
0.050000000000000003,-0.061327420175075531,
0.052499999999999998,-0.061543785035610199,
0.055,-0.061591863632202148,
0.057500000000000002,-0.06137549877166748,
0.059999999999999998,-0.061303377151489258,
0.0625,-0.061327420175075531,
0.065000000000000002,-0.061447620391845703,
0.067500000000000004,-0.06183227151632309,
0.070000000000000007,-0.061976514756679535,
0.072499999999999995,-0.061976514756679535,
0.074999999999999997,-0.061952471733093262,
0.077499999999999999,-0.062216918915510178,
0.080000000000000002,-0.062938138842582703,
0.082500000000000004,-0.064332485198974609,
0.085000000000000006,-0.06644805520772934,
0.087499999999999994,-0.072602435946464539,
0.089999999999999997,-0.07596810907125473,
0.092499999999999999,-0.078949138522148132,
0.095000000000000001,-0.081016622483730316,
0.097500000000000003,-0.080824300646781921,
0.10000000000000001,-0.078276000916957855,
0.10249999999999999,-0.074237190186977386,
0.105,-0.069116555154323578,
0.1075,-0.057865582406520844,
0.11,-0.052913229912519455,
0.1125,-0.049138866364955902,
0.115,-0.046903096139431,
0.11749999999999999,-0.047456026077270508,
0.12,-0.049956243485212326,
0.1225,-0.053490202873945236,
0.125,-0.05750497430562973,
0.1275,-0.064693093299865723,
0.13,-0.06673654168844223,
0.13250000000000001,-0.067217350006103516,
0.13500000000000001,-0.06599128246307373,
0.13750000000000001,-0.058947406709194183,
0.14000000000000001,-0.053898893296718597,
0.14249999999999999,-0.048634015023708344,
0.14499999999999999,-0.043753784149885178,
0.14749999999999999,-0.037455163896083832,
0.14999999999999999,-0.03675798699259758,
0.1525,-0.037887893617153168,
0.155,-0.040748715400695801,
0.1575,-0.050629377365112305,
0.16,-0.05675971508026123,
0.16250000000000001,-0.063034296035766602,
0.16500000000000001,-0.06885211169719696,
0.16750000000000001,-0.076809525489807129,
0.17000000000000001,-0.077939435839653015,
0.17249999999999999,-0.076641246676445007,
0.17499999999999999,-0.072794757783412933,
0.17749999999999999,-0.057793460786342621,
0.17999999999999999,-0.047480069100856781,
0.1825,-0.036156974732875824,
0.185,-0.02461751364171505,
0.1875,-0.0044715404510498047,
0.19,0.0026444594841450453,
0.1925,0.007043878547847271,
0.19500000000000001,0.0083661079406738281,
0.19750000000000001,0.0019232432823628187,
0.20000000000000001,-0.0052889189682900906,
0.20250000000000001,-0.014400283806025982,
0.20499999999999999,-0.024641554802656174,
0.20749999999999999,-0.045268338173627853,
0.20999999999999999,-0.05413929745554924,
0.21249999999999999,-0.061303377151489258,
0.215,-0.066520176827907562,
0.2175,-0.071448490023612976,
0.22,-0.071977376937866211,
0.2225,-0.071953341364860535,
0.22500000000000001,-0.071929298341274261,
0.22750000000000001,-0.073251530528068542,
0.23000000000000001,-0.074693962931632996,
0.23250000000000001,-0.07630467414855957,
0.23499999999999999,-0.077674984931945801,
0.23749999999999999,-0.077819228172302246,
0.23999999999999999,-0.076088309288024902,
0.24249999999999999,-0.073275566101074219,
0.245,-0.069885849952697754,
0.2475,-0.064909458160400391,
0.25,-0.065606638789176941,
0.2525,-0.06998201459646225,
0.255,-0.079069338738918304,
0.25750000000000001,-0.11327902972698212,
0.26000000000000001,-0.13808886706829071,
0.26250000000000001,-0.16674518585205078,
0.26500000000000001,-0.19734880328178406,
0.26750000000000002,-0.25415658950805664,
0.27000000000000002,-0.27411025762557983,
0.27250000000000002,-0.2839428186416626,
0.27500000000000002,-0.28045696020126343,
0.27750000000000002,-0.22280773520469666,
0.28000000000000003,-0.16535083949565887,
0.28249999999999997,-0.088348984718322754,
0.28499999999999998,0.0069957971572875977,
0.28749999999999998,0.24054965376853943,
0.28999999999999998,0.3692626953125,
0.29249999999999998,0.49756705760955811,
0.29499999999999998,0.61810636520385742,
0.29749999999999999,0.80603122711181641,
0.29999999999999999,0.85993015766143799,
0.30249999999999999,0.88053286075592041,
0.30499999999999999,0.86555564403533936,
0.3075,0.73270761966705322,
0.31,0.62332314252853394,
0.3125,0.4946821928024292,
0.315,0.3555595874786377,
0.3175,0.082386933267116547,
0.32000000000000001,-0.035459797829389572,
0.32250000000000001,-0.13282398879528046,
0.32500000000000001,-0.20641207695007324,
0.32750000000000001,-0.28122624754905701,
0.33000000000000002,-0.2869238555431366,
0.33250000000000002,-0.27687489986419678,
0.33500000000000002,-0.25598368048667908,
0.33750000000000002,-0.20047406852245331,
0.34000000000000002,-0.17352461814880371,
0.34250000000000003,-0.15046975016593933,
0.34499999999999997,-0.1324152946472168,
0.34749999999999998,-0.11097113788127899,
0.34999999999999998,-0.10585050284862518,
0.35249999999999998,-0.10277330875396729,
0.35499999999999998,-0.10060966014862061,
0.35749999999999998,-0.095416903495788574,
0.35999999999999999,-0.091546379029750824,
0.36249999999999999,-0.086762309074401855,
0.36499999999999999,-0.081232987344264984,
0.36749999999999999,-0.069260798394680023,
0.37,-0.063274703919887543,
0.3725,-0.057601135224103928,
0.375,-0.052336256951093674,
0.3775,-0.043417215347290039,
0.38,-0.039907298982143402,
0.38250000000000001,-0.037142634391784668,
0.38500000000000001,-0.035075150430202484,
0.38750000000000001,-0.032911501824855804,
0.39000000000000001,-0.032406650483608246,
0.39250000000000002,-0.032021999359130859,
0.39500000000000002,-0.031469069421291351,
0.39750000000000002,-0.0292332973331213,
0.40000000000000002,-0.027406215667724609,
0.40250000000000002,-0.025266608223319054,
0.40500000000000003,-0.022934675216674805,
0.40749999999999997,-0.018751621246337891,
0.40999999999999998,-0.017261108383536339,
0.41249999999999998,-0.016347568482160568,
0.41499999999999998,-0.016035040840506554,
0.41749999999999998,-0.016780298203229904,
0.41999999999999998,-0.017429392784833908,
0.42249999999999999,-0.017910202965140343,
0.42499999999999999,-0.01783808134496212,
0.42749999999999999,-0.014808973297476768,
0.42999999999999999,-0.011347135528922081,
0.4325,-0.0064428648911416531,
0.435,-0.00021636486053466797,
0.4375,0.015145540237426758,
0.44,0.023295283317565918,
0.4425,0.03106037899851799,
0.44500000000000001,0.03800809383392334,
0.44750000000000001,0.048297446221113205,
0.45000000000000001,0.051711201667785645,
0.45250000000000001,0.05430757999420166,
0.45500000000000002,0.056543350219726562,
0.45750000000000002,0.061952471733093262,
0.46000000000000002,0.065943203866481781,
0.46250000000000002,0.071087881922721863,
0.46500000000000002,0.07738649845123291,
0.46750000000000003,0.092459917068481445,
0.46999999999999997,0.10051350295543671,
0.47249999999999998,0.10832667350769043,
0.47499999999999998,0.11546671390533447,
0.47749999999999998,0.12671768665313721,
0.47999999999999998,0.13056418299674988,
0.48249999999999998,0.13328075408935547,
0.48499999999999999,0.13510784506797791,
0.48749999999999999,0.13703107833862305,
0.48999999999999999,0.13775229454040527,
0.49249999999999999,0.13859371840953827,
0.495,0.13960342109203339,
0.4975,0.14203152060508728,
0.5,0.14306525886058807,
0.50249999999999995,0.14364223182201385,
0.505,0.14352202415466309,
0.50749999999999995,0.14046888053417206,
0.51000000000000001,0.13739168643951416,
0.51249999999999996,0.13323268294334412,
0.51500000000000001,0.12806396186351776,
0.51749999999999996,0.11476954072713852,
0.52000000000000002,0.1067640408873558,
0.52249999999999996,0.097893081605434418,
0.52500000000000002,0.088300906121730804,
0.52749999999999997,0.067577958106994629,
0.53000000000000003,0.056952040642499924,
0.53249999999999997,0.046518445014953613,
0.53500000000000003,0.036469500511884689,
0.53749999999999998,0.01829485222697258,
0.54000000000000004,0.010241270065307617,
0.54249999999999998,0.0028127431869506836,
0.54500000000000004,-0.0040868921205401421,
0.54749999999999999,-0.016804337501525879,
0.55000000000000004,-0.022814473137259483,
0.55249999999999999,-0.028632283210754395,
0.55500000000000005,-0.034329891204833984,
0.5575,-0.045412581413984299,
0.56000000000000005,-0.050845742225646973,
0.5625,-0.056230824440717697,
0.56499999999999995,-0.061615906655788422,
0.5675,-0.072265863418579102,
0.56999999999999995,-0.077434584498405457,
0.57250000000000001,-0.08241097629070282,
0.57499999999999996,-0.087146960198879242,
0.57750000000000001,-0.095705389976501465,
0.57999999999999996,-0.099527835845947266,
0.58250000000000002,-0.10301371663808823,
0.58499999999999996,-0.10616302490234375,
0.58750000000000002,-0.111427903175354,
0.58999999999999997,-0.11349539458751678,
0.59250000000000003,-0.11520227044820786,
0.59499999999999997,-0.11666874587535858,
0.59750000000000003,-0.1192651242017746,
0.59999999999999998,-0.12077967822551727,
0.60250000000000004,-0.12263079732656479,
0.60499999999999998,-0.12484252452850342,
0.60750000000000004,-0.1297948807477951,
0.60999999999999999,-0.13200661540031433,
0.61250000000000004,-0.13356924057006836,
0.61499999999999999,-0.13419429957866669,
0.61750000000000005,-0.13195852935314178,
0.62,-0.12919387221336365,
0.62250000000000005,-0.12568394839763641,
0.625,-0.12176533788442612,
0.62749999999999995,-0.11428873240947723,
0.63,-0.11121153831481934,
0.63249999999999995,-0.10875940322875977,
0.63500000000000001,-0.10683616250753403,
0.63749999999999996,-0.10402341932058334,
0.64000000000000001,-0.10282139480113983,
0.64249999999999996,-0.101643405854702,
0.64500000000000002,-0.10046541690826416,
0.64749999999999996,-0.09875854104757309,
0.65000000000000002,-0.098542176187038422,
0.65249999999999997,-0.098998948931694031,
0.65500000000000003,-0.10024905204772949,
0.65749999999999997,-0.10498504340648651,
0.66000000000000003,-0.10815839469432831,
0.66249999999999998,-0.111427903175354,
0.66500000000000004,-0.11440893262624741,
0.66749999999999998,-0.11808713525533676,
0.67000000000000004,-0.11820733547210693,
0.67249999999999999,-0.11712551116943359,
0.67500000000000004,-0.11496186256408691,
0.67749999999999999,-0.10878344625234604,
0.68000000000000005,-0.10570625960826874,
0.6825,-0.10323008149862289,
0.68500000000000005,-0.101643405854702,
0.6875,-0.1015472412109375,
0.68999999999999995,-0.10272523015737534,
0.6925,-0.10428786277770996,
0.69499999999999995,-0.10714869201183319,
0.69750000000000001,-0.10786990821361542,
0.69999999999999996,-0.10801415145397186,
0.70250000000000001,-0.10762950032949448,
0.70499999999999996,-0.1068602055311203,
0.70750000000000002,-0.10515332221984863,
0.70999999999999996,-0.10460039228200912,
0.71250000000000002,-0.10438402742147446,
0.71499999999999997,-0.1045282706618309,
0.71750000000000003,-0.1053696870803833,
0.71999999999999997,-0.10570625960826874,
0.72250000000000003,-0.10570625960826874,
0.72499999999999998,-0.10395129770040512,
0.72750000000000004,-0.10200401395559311,
0.72999999999999998,-0.099335514008998871,
0.73250000000000004,-0.096162162721157074,
0.73499999999999999,-0.092772446572780609,
0.73750000000000004,-0.087002716958522797,
0.73999999999999999,-0.085512205958366394,
0.74250000000000005,-0.085488162934780121,
0.745,-0.087074838578701019,
0.74750000000000005,-0.094888016581535339,
0.75,-0.10044138133525848,
0.75249999999999995,-0.10628323256969452,
0.755,-0.11626005172729492,
0.75749999999999995,-0.11909683793783188,
0.76000000000000001,-0.1199142187833786,
0.76249999999999996,-0.11849582195281982,
0.76500000000000001,-0.11486570537090302,
0.76749999999999996,-0.102292500436306,
0.77000000000000002,-0.094407200813293457,
0.77249999999999996,-0.086425743997097015,
0.77500000000000002,-0.073107287287712097,
0.77749999999999997,-0.069116555154323578,
0.78000000000000003,-0.067457757890224457,
0.78249999999999997,-0.068275138735771179,
0.78500000000000003,-0.076136395335197449,
0.78749999999999998,-0.081930160522460938,
0.79000000000000004,-0.087772011756896973,
0.79249999999999998,-0.09272436797618866,
0.79500000000000004,-0.096979543566703796,
0.79749999999999999,-0.095440946519374847,
0.80000000000000004,-0.091498300433158875,
0.80249999999999999,-0.085608363151550293,
0.80500000000000005,-0.070919595658779144,
0.8075,-0.063803598284721375,
0.81000000000000005,-0.057865582406520844,
0.8125,-0.053658485412597656,
0.81499999999999995,-0.051326554268598557,
0.8175,-0.053009390830993652,
0.81999999999999995,-0.056206785142421722,
0.82250000000000001,-0.060389839112758636,
0.82499999999999996,-0.069597363471984863,
0.82750000000000001,-0.073780417442321777,
0.82999999999999996,-0.077290341258049011,
0.83250000000000002,-0.080054998397827148,
0.83499999999999996,-0.083949565887451172,
0.83750000000000002,-0.085632406175136566,
0.83999999999999997,-0.087603732943534851,
0.84250000000000003,-0.090200111269950867,
0.84499999999999997,-0.093613862991333008,
0.84750000000000003,-0.10291755199432373,
0.84999999999999998,-0.1083507165312767,
0.85250000000000004,-0.11383195966482162,
0.85499999999999998,-0.1229914054274559,
0.85750000000000004,-0.12570798397064209,
0.85999999999999999,-0.12674173712730408,
0.86250000000000004,-0.1259724348783493,
0.86499999999999999,-0.11943340301513672,
0.86750000000000005,-0.11457721889019012,
0.87,-0.10964890569448471,
0.87250000000000005,-0.10568221658468246,
0.875,-0.1038791760802269,
0.87749999999999995,-0.11125962436199188,
0.88,-0.12231826782226562,
0.88249999999999995,-0.13878604769706726,
0.88500000000000001,-0.18590550124645233,
0.88749999999999996,-0.2138165682554245,
0.89000000000000001,-0.24167954921722412,
0.89249999999999996,-0.26660960912704468,
0.89500000000000002,-0.29524189233779907,
0.89749999999999996,-0.29274165630340576,
0.90000000000000002,-0.27550458908081055,
0.90249999999999997,-0.24158339202404022,
0.90500000000000003,-0.12037098407745361,
0.90749999999999997,-0.034041404724121094,
0.91000000000000003,0.06673654168844223,
0.91249999999999998,0.17835676670074463,
0.91500000000000004,0.41335305571556091,
0.91749999999999998,0.52391552925109863,
0.92000000000000004,0.62041425704956055,
0.92249999999999999,0.69599771499633789,
0.92500000000000004,0.76210916042327881,
0.92749999999999999,0.74602603912353516,
0.93000000000000005,0.69671893119812012,
0.9325,0.61707258224487305,
0.93500000000000005,0.3899616003036499,
0.9375,0.25833964347839355,
0.93999999999999995,0.12640516459941864,
0.9425,0.0025723378639668226,
0.94499999999999995,-0.19436776638031006,
0.94750000000000001,-0.25951763987541199,
0.94999999999999996,-0.30108374357223511,
0.95250000000000001,-0.32074889540672302,
0.95499999999999996,-0.30896902084350586,
0.95750000000000002,-0.28665941953659058,
0.95999999999999996,-0.25961381196975708,
0.96250000000000002,-0.23158252239227295,
0.96499999999999997,-0.18263599276542664,
0.96750000000000003,-0.16405265033245087,
0.96999999999999997,-0.14948408305644989,
0.97250000000000003,-0.13835331797599792,
0.97499999999999998,-0.129891037940979,
0.97750000000000004,-0.11827945709228516,
0.97999999999999998,-0.11426468938589096,
0.98250000000000004,-0.11111538112163544,
0.98499999999999999,-0.10868728160858154,
0.98750000000000004,-0.10520140826702118,
0.98999999999999999,-0.10344644635915756,
0.99250000000000005,-0.10118663311004639,
0.995,-0.093950435519218445,
0.99750000000000005,-0.088853836059570312,
1,-0.083204314112663269,91.216217041015625
1.0024999999999999,-0.077530741691589355,
1.0049999999999999,-0.068779990077018738,
1.0075000000000001,-0.066856741905212402,
1.01,-0.066952906548976898,
1.0125,-0.068948268890380859,
1.0149999999999999,-0.076833568513393402,
1.0175000000000001,-0.081208944320678711,
1.02,-0.084790989756584167,
1.0225,-0.086882516741752625,
1.0249999999999999,-0.08486311137676239,
1.0275000000000001,-0.08058389276266098,
1.03,-0.074501633644104004,
1.0325,-0.067169271409511566,
1.0349999999999999,-0.05151887983083725,
1.0375000000000001,-0.044499039649963379,
1.04,-0.038681231439113617,
1.0425,-0.03430585190653801,
1.0449999999999999,-0.029593905434012413,
1.0475000000000001,-0.028728445991873741,
1.05,-0.028319757431745529,
1.0525,-0.028031270951032639,
1.0549999999999999,-0.026997527107596397,
1.0575000000000001,-0.026180148124694824,
1.0600000000000001,-0.025314688682556152,
1.0625,-0.024569433182477951,
1.0649999999999999,-0.023439526557922363,
1.0674999999999999,-0.022766392678022385,
1.0700000000000001,-0.021516283974051476,
1.0725,-0.019256472587585449,
1.075,-0.0099047031253576279,
1.0774999999999999,-0.0023800134658813477,
1.0800000000000001,0.006923675537109375,
1.0825,0.017621716484427452,
1.085,0.04046022891998291,
1.0874999999999999,0.051110189408063889,
1.0900000000000001,0.060389839112758636,
1.0925,0.067914530634880066,
1.095,0.07738649845123291,
1.0974999999999999,0.079862676560878754,
1.1000000000000001,0.081521473824977875,
1.1025,0.082939863204956055,
1.105,0.087267160415649414,
1.1074999999999999,0.090777084231376648,
1.1100000000000001,0.095224581658840179,
1.1125,0.10032117366790771,
1.115,0.11044224351644516,
1.1174999999999999,0.11433681100606918,
1.1200000000000001,0.11678894609212875,
1.1225000000000001,0.1175822839140892,
1.125,0.11424064636230469,
1.1274999999999999,0.1106826514005661,
1.1299999999999999,0.10649959743022919,
1.1325000000000001,0.10212421417236328,
1.135,0.093950435519218445,
1.1375,0.090248189866542816,
1.1399999999999999,0.086425743997097015,
1.1425000000000001,0.082122489809989929,
1.145,0.070342622697353363,
1.1475,0.06216883659362793,
1.1499999999999999,0.052384339272975922,
1.1525000000000001,0.041061244904994965,
1.155,0.028512081131339073,
1.1575,0.0015626351814717054,
1.1599999999999999,-0.01185198687016964,
1.1625000000000001,-0.024521350860595703,
1.165,-0.046085715293884277,
1.1675,-0.054475866258144379,
1.1699999999999999,-0.061159133911132812,
1.1725000000000001,-0.066207647323608398,
1.175,-0.072602435946464539,
1.1775,-0.074693962931632996,
1.1799999999999999,-0.076689325273036957,
1.1825000000000001,-0.078973174095153809,
1.1850000000000001,-0.08553624153137207,
1.1875,-0.090007781982421875,
1.1899999999999999,-0.095128417015075684,
1.1924999999999999,-0.1007058247923851,
1.1950000000000001,-0.11214911937713623,
1.1975,-0.11753420531749725,
1.2,-0.12246251106262207,
1.2024999999999999,-0.12688598036766052,
1.2050000000000001,-0.13070842623710632,
1.2075,-0.13655027747154236,
1.21,-0.13844947516918182,
1.2124999999999999,-0.13969957828521729,
1.2150000000000001,-0.14022848010063171,
1.2175,-0.13972362875938416,
1.22,-0.13897836208343506,
1.2224999999999999,-0.13818502426147461,
1.2250000000000001,-0.13727149367332458,
1.2275,-0.13743977248668671,
1.23,-0.13799270987510681,
1.2324999999999999,-0.13878604769706726,
1.2350000000000001,-0.14032463729381561,
1.2375,-0.14054100215435028,
1.24,-0.14008423686027527,
1.2424999999999999,-0.13885816931724548,
1.2450000000000001,-0.13681471347808838,
1.2475000000000001,-0.13061225414276123,
1.25,-0.12683789432048798,
1.2524999999999999,-0.1229914054274559,
1.2549999999999999,-0.1162840947508812,
1.2575000000000001,-0.11392812430858612,
1.26,-0.11253377050161362,
1.2625,-0.11210104078054428,
1.2649999999999999,-0.11397620290517807,
1.2675000000000001,-0.11587540805339813,
1.27,-0.11806309223175049,
1.2725,-0.12029886245727539,
1.2749999999999999,-0.12426555156707764,
1.2775000000000001,-0.12580415606498718,
1.28,-0.12712638080120087,
1.2825,-0.12832841277122498,
1.2849999999999999,-0.13078054785728455,
1.2875000000000001,-0.13217489421367645,
1.29,-0.13366541266441345,
1.2925,-0.1352040022611618,
1.2949999999999999,-0.13794462382793427,
1.2975000000000001,-0.13885816931724548,
1.3,-0.13933897018432617,
1.3025,-0.13926684856414795,
1.3049999999999999,-0.13729552924633026,
1.3075000000000001,-0.13537228107452393,
1.3100000000000001,-0.132872074842453,
1.3125,-0.12991508841514587,
1.3149999999999999,-0.12344817817211151,
1.3174999999999999,-0.12032290548086166,
1.3200000000000001,-0.11755824089050293,
1.3225,-0.11527439206838608,
1.325,-0.1121731624007225,
1.3274999999999999,-0.11113941669464111,
1.3300000000000001,-0.11024992167949677,
1.3325,-0.10931234061717987,
1.335,-0.10719677060842514,
1.3374999999999999,-0.1061149463057518,
1.3400000000000001,-0.10524948686361313,
1.3425,-0.10479271411895752,
1.345,-0.10544180870056152,
1.3474999999999999,-0.10647555440664291,
1.3500000000000001,-0.10765354335308075,
1.3525,-0.10868728160858154,
1.355,-0.10892768949270248,
1.3574999999999999,-0.10767757892608643,
1.3600000000000001,-0.10548989474773407,
1.3625,-0.10250886529684067,
1.365,-0.095440946519374847,
1.3674999999999999,-0.092147395014762878,
1.3700000000000001,-0.08947889506816864,
1.3725000000000001,-0.087747976183891296,
1.375,-0.087603732943534851,
1.3774999999999999,-0.089166365563869476,
1.3799999999999999,-0.091690622270107269,
1.3825000000000001,-0.094888016581535339,
1.385,-0.10212421417236328,
1.3875,-0.10541777312755585,
1.3899999999999999,-0.10799010843038559,
1.3925000000000001,-0.10957678407430649,
1.395,-0.10883152484893799,
1.3975,-0.10637938976287842,
1.3999999999999999,-0.10274927318096161,
1.4025000000000001,-0.098181568086147308,
1.405,-0.087796054780483246,
1.4075,-0.082819662988185883,
1.4099999999999999,-0.07846832275390625,
1.4125000000000001,-0.074982449412345886,
1.415,-0.071135960519313812,
1.4175,-0.070534944534301758,
1.4199999999999999,-0.070510908961296082,
1.4225000000000001,-0.070703230798244476,
1.425,-0.070198379456996918,
1.4275,-0.068924233317375183,
1.4299999999999999,-0.066832706332206726,
1.4325000000000001,-0.064092084765434265,
1.4350000000000001,-0.058178108185529709,
1.4375,-0.056086581200361252,
1.4399999999999999,-0.055365364998579025,
1.4424999999999999,-0.05642315000295639,
1.4450000000000001,-0.064500771462917328,
1.4475,-0.071208082139492035,
1.45,-0.079093381762504578,
1.4524999999999999,-0.087579689919948578,
1.4550000000000001,-0.10402341932058334,
1.4575,-0.11106729507446289,
1.46,-0.11700531095266342,
1.4624999999999999,-0.12174129486083984,
1.4650000000000001,-0.12770335376262665,
1.4675,-0.12897750735282898,
1.47,-0.12902557849884033,
1.4724999999999999,-0.12784759700298309,
1.4750000000000001,-0.1215970516204834,
1.4775,-0.11678894609212875,
1.48,-0.111427903175354,
1.4824999999999999,-0.10613898932933807,
1.4850000000000001,-0.099672079086303711,
1.4875,-0.10065774619579315,
1.49,-0.10577838122844696,
1.4924999999999999,-0.11580328643321991,
1.4950000000000001,-0.15119096636772156,
1.4975000000000001,-0.17537574470043182,
1.5,-0.20213286578655243,
1.5024999999999999,-0.22922655940055847,
1.5049999999999999,-0.27295631170272827,
1.5075000000000001,-0.28317353129386902,
1.51,-0.28125029802322388,
1.5125,-0.26432573795318604,
1.5149999999999999,-0.1777317225933075,
1.5175000000000001,-0.10678808391094208,
1.52,-0.018775662407279015,
1.5225,0.083588957786560059,
1.5249999999999999,0.31332036852836609,
1.5275000000000001,0.42881113290786743,
1.53,0.5355992317199707,
1.5325,0.62656861543655396,
1.5349999999999999,0.73592901229858398,
1.5375000000000001,0.74520868062973022,
1.54,0.72140854597091675,
1.5425,0.66544216871261597,
1.5449999999999999,0.47292551398277283,
1.5475000000000001,0.34942924976348877,
1.55,0.21874487400054932,
1.5525,0.08952697366476059,
1.5549999999999999,-0.13366541266441345,
1.5575000000000001,-0.21624466776847839,
1.5600000000000001,-0.27552863955497742,
1.5625,-0.31132501363754272,
1.5649999999999999,-0.32555699348449707,
1.5674999999999999,-0.30440133810043335,
1.5700000000000001,-0.27831733226776123,
1.5725,-0.24819454550743103,
1.575,-0.19073764979839325,
1.5774999999999999,-0.1682116687297821,
1.5800000000000001,-0.15126308798789978,
1.5825,-0.13962745666503906,
1.585,-0.12844860553741455,
1.5874999999999999,-0.1261647641658783,
1.5900000000000001,-0.12431363761425018,
1.5925,-0.12186150252819061,
1.595,-0.11325498670339584,
1.5974999999999999,-0.1070525273680687,
1.6000000000000001,-0.10017693042755127,
1.6025,-0.093205176293849945,
1.605,-0.081208944320678711,
1.6074999999999999,-0.07704993337392807,
1.6100000000000001,-0.074333354830741882,
1.6125,-0.072963044047355652,
1.615,-0.073155365884304047,
1.6174999999999999,-0.073924660682678223,
1.6200000000000001,-0.0745977982878685,
1.6225000000000001,-0.074766084551811218,
1.625,-0.074165068566799164,
1.6274999999999999,-0.070006057620048523,
1.6299999999999999,-0.066327854990959167,
1.6325000000000001,-0.061808228492736816,
1.635,-0.051230393350124359,
1.6375,-0.045917432755231857,
1.6399999999999999,-0.041085284203290939,
1.6425000000000001,-0.037022434175014496,
1.645,-0.031853716820478439,
1.6475,-0.030747851356863976,
1.6499999999999999,-0.030363202095031738,
1.6525000000000001,-0.030507445335388184,
1.655,-0.031180581077933311,
1.6575,-0.03122866153717041,
1.6599999999999999,-0.030892094597220421,
1.6625000000000001,-0.030002593994140625,
1.665,-0.026300352066755295,
1.6675,-0.023391446098685265,
1.6699999999999999,-0.01966516301035881,
1.6725000000000001,-0.015169581398367882,
1.675,-0.0039907298050820827,
1.6775,0.0023800134658813477,
1.6799999999999999,0.0089911622926592827,
1.6825000000000001,0.015602311119437218,
1.6850000000000001,0.027959149330854416,
1.6875,0.03339231014251709,
1.6899999999999999,0.038272541016340256,
1.6924999999999999,0.042647920548915863,
1.6950000000000001,0.050196647644042969,
1.6975,0.053658485412597656,
1.7,0.057024162262678146,
1.7024999999999999,0.060486000031232834,
1.7050000000000001,0.068082809448242188,
1.7075,0.072410106658935547,
1.71,0.077218219637870789,
1.7124999999999999,0.082459054887294769,
1.7150000000000001,0.093758106231689453,
1.7175,0.099407635629177094,
1.72,0.1046244353055954,
1.7224999999999999,0.10916809737682343,
1.7250000000000001,0.11282225698232651,
1.7275,0.11707743257284164,
1.73,0.11787077039480209,
1.7324999999999999,0.11806309223175049,
1.7350000000000001,0.1177746057510376,
1.7375,0.11775057017803192,
1.74,0.11789481341838837,
1.7424999999999999,0.11813521385192871,
1.7450000000000001,0.1177746057510376,
1.7475000000000001,0.11642833799123764,
1.75,0.11378388106822968,
1.7524999999999999,0.10943254083395004,
1.7549999999999999,0.094839930534362793,
1.7575000000000001,0.084598660469055176,
1.76,0.072674557566642761,
1.7625,0.059572458267211914,
1.7649999999999999,0.032094120979309082,
1.7675000000000001,0.018943946808576584,
1.77,0.0068515539169311523,
1.7725,-0.0038464865647256374,
1.7749999999999999,-0.021035473793745041,
1.7775000000000001,-0.027911067008972168,
1.78,-0.034185647964477539,
1.7825,-0.040219824761152267,
1.7849999999999999,-0.05276898667216301,
1.7875000000000001,-0.059452258050441742,
1.79,-0.066231690347194672,
1.7925,-0.072914958000183105,
1.7949999999999999,-0.084646746516227722,
1.7975000000000001,-0.089238487184047699,
1.8,-0.092868611216545105,
1.8025,-0.09556114673614502,
1.8049999999999999,-0.098734498023986816,
1.8075000000000001,-0.099696122109889984,
1.8100000000000001,-0.10053753852844238,
1.8125,-0.10152320563793182,
1.8149999999999999,-0.10467251390218735,
1.8174999999999999,-0.1070525273680687,
1.8200000000000001,-0.11010567843914032,
1.8225,-0.11373579502105713,
1.825,-0.12202978134155273,
1.8274999999999999,-0.12611667811870575,
1.8300000000000001,-0.12967467308044434,
1.8325,-0.1323191374540329,
1.835,-0.1338096559047699,
1.8374999999999999,-0.13239125907421112,
1.8400000000000001,-0.12960255146026611,
1.8425,-0.12568394839763641,
1.845,-0.11587540805339813,
1.8474999999999999,-0.11073072999715805,
1.8500000000000001,-0.10592262446880341,
1.8525,-0.10171552747488022,
1.855,-0.095921754837036133,
1.8574999999999999,-0.094503365457057953,
1.8600000000000001,-0.094166800379753113,
1.8625,-0.094839930534362793,
1.865,-0.099071070551872253,
1.8674999999999999,-0.10243674367666245,
1.8700000000000001,-0.10645151138305664,
1.8725000000000001,-0.11092305183410645,
1.875,-0.12017866224050522,
1.8774999999999999,-0.12428959459066391,
1.8799999999999999,-0.12753507494926453,
1.8825000000000001,-0.12953042984008789,
1.885,-0.12835244834423065,
1.8875,-0.12484252452850342,
1.8899999999999999,-0.11948148906230927,
1.8925000000000001,-0.11265397071838379,
1.895,-0.097268030047416687,
1.8975,-0.090344354510307312,
1.8999999999999999,-0.085079476237297058,
1.9025000000000001,-0.082074403762817383,
1.905,-0.083973608911037445,
1.9075,-0.088469192385673523,
1.9099999999999999,-0.094527408480644226,
1.9125000000000001,-0.10128279775381088,
1.915,-0.11296650022268295,
1.9175,-0.11630813777446747,
1.9199999999999999,-0.11736591905355453,
1.9225000000000001,-0.11597156524658203,
1.925,-0.10690828412771225,
1.9275,-0.10032117366790771,
1.9299999999999999,-0.093277297914028168,
1.9325000000000001,-0.086545944213867188,
1.9350000000000001,-0.076521039009094238,
1.9375,-0.074068903923034668,
1.9399999999999999,-0.07351597398519516,
1.9424999999999999,-0.074717998504638672,
1.9450000000000001,-0.08063197135925293,
1.9475,-0.08411785215139389,
1.95,-0.087074838578701019,
1.9524999999999999,-0.088974043726921082,
1.9550000000000001,-0.088348984718322754,
1.9575,-0.085848771035671234,
1.96,-0.082290768623352051,
1.9624999999999999,-0.078179836273193359,
1.9650000000000001,-0.074068903923034668,
1.9675,-0.06786644458770752,
1.97,-0.066279768943786621,
1.9724999999999999,-0.065847039222717285,
1.9750000000000001,-0.067433714866638184,
1.9775,-0.068804025650024414,
1.98,-0.070078179240226746,
1.9824999999999999,-0.070967674255371094,
1.9850000000000001,-0.070823431015014648,
1.9875,-0.069765649735927582,
1.99,-0.068178974092006683,
1.9924999999999999,-0.066303811967372894,
1.9950000000000001,-0.062673687934875488,
1.9975000000000001,-0.061327420175075531,
2,-0.060510039329528809,92.664093017578125
2.0024999999999999,-0.060197513550519943,
2.0049999999999999,-0.060558121651411057,
2.0074999999999998,-0.060870647430419922,
2.0099999999999998,-0.060990851372480392,
2.0125000000000002,-0.060798525810241699,
2.0150000000000001,-0.059332054108381271,
2.0175000000000001,-0.058130025863647461,
2.02,-0.05675971508026123,
2.0225,-0.055197082459926605,
2.0249999999999999,-0.051206350326538086,
2.0274999999999999,-0.048417650163173676,
2.0299999999999998,-0.04478752613067627,
2.0325000000000002,-0.040219824761152267,
2.0350000000000001,-0.028536122292280197,
2.0375000000000001,-0.022093256935477257,
2.04,-0.016083121299743652,
2.0425,-0.011202892288565636,
2.0449999999999999,-0.0074525675736367702,
2.0474999999999999,-0.009447932243347168,
2.0499999999999998,-0.014135837554931641,
2.0525000000000002,-0.021203756332397461,
2.0550000000000002,-0.04017174243927002,
2.0575000000000001,-0.050557255744934082,
2.0600000000000001,-0.060606203973293304,
2.0625,-0.069741606712341309,
2.0649999999999999,-0.083973608911037445,
2.0674999999999999,-0.088974043726921082,
2.0699999999999998,-0.092700324952602386,
2.0724999999999998,-0.095368824899196625,
2.0750000000000002,-0.098133489489555359,
2.0775000000000001,-0.098253689706325531,
2.0800000000000001,-0.097364187240600586,
2.0825,-0.095152460038661957,
2.085,-0.086065135896205902,
2.0874999999999999,-0.0791655033826828,
2.0899999999999999,-0.071160003542900085,
2.0924999999999998,-0.062890052795410156,
2.0950000000000002,-0.050413012504577637,
2.0975000000000001,-0.049114823341369629,
2.1000000000000001,-0.05293726921081543,
2.1025,-0.062793895602226257,
2.105,-0.10152320563793182,
2.1074999999999999,-0.12895345687866211,
2.1099999999999999,-0.15953302383422852,
2.1124999999999998,-0.19080977141857147,
2.1150000000000002,-0.24357876181602478,
2.1175000000000002,-0.25874835252761841,
2.1200000000000001,-0.26237845420837402,
2.1225000000000001,-0.25189679861068726,
2.125,-0.18085698783397675,
2.1274999999999999,-0.11849582195281982,
2.1299999999999999,-0.038633149117231369,
2.1324999999999998,0.056903958320617676,
2.1349999999999998,0.28158685564994812,
2.1375000000000002,0.40087601542472839,
2.1400000000000001,0.51651102304458618,
2.1425000000000001,0.62164032459259033,
2.145,0.77336013317108154,
2.1475,0.80879592895507812,
2.1499999999999999,0.81247413158416748,
2.1524999999999999,0.78338503837585449,
2.1549999999999998,0.63510298728942871,
2.1575000000000002,0.52550220489501953,
2.1600000000000001,0.4015251100063324,
2.1625000000000001,0.27141770720481873,
2.165,0.025122364982962608,
2.1675,-0.077242255210876465,
2.1699999999999999,-0.15929262340068817,
2.1724999999999999,-0.21876892447471619,
2.1749999999999998,-0.27098497748374939,
2.1775000000000002,-0.26862901449203491,
2.1800000000000002,-0.25240164995193481,
2.1825000000000001,-0.2267744243144989,
2.1850000000000001,-0.16410073637962341,
2.1875,-0.13373753428459167,
2.1899999999999999,-0.1070525273680687,
2.1924999999999999,-0.08524775505065918,
2.1949999999999998,-0.057264566421508789,
2.1974999999999998,-0.050461094826459885,
2.2000000000000002,-0.047504108399152756,
2.2025000000000001,-0.047552190721035004,
2.2050000000000001,-0.053273838013410568,
2.2075,-0.057312648743391037,
2.21,-0.06108701229095459,
2.2124999999999999,-0.064068041741847992,
2.2149999999999999,-0.065847039222717285,
2.2174999999999998,-0.06428440660238266,
2.2200000000000002,-0.061135094612836838,
2.2225000000000001,-0.056735675781965256,
2.2250000000000001,-0.045797228813171387,
2.2275,-0.040219824761152267,
2.23,-0.035171311348676682,
2.2324999999999999,-0.031012296676635742,
2.2349999999999999,-0.025891661643981934,
2.2374999999999998,-0.024930041283369064,
2.2400000000000002,-0.024833878502249718,
2.2425000000000002,-0.02524256706237793,
2.2450000000000001,-0.026059946045279503,
2.2475000000000001,-0.02569933794438839,
2.25,-0.024377107620239258,
2.2524999999999999,-0.021924972534179688,
2.2549999999999999,-0.01829485222697258,
2.2574999999999998,-0.0080776214599609375,
2.2599999999999998,-0.0021155676804482937,
2.2625000000000002,0.0039186081849038601,
2.2650000000000001,0.014784932136535645,
2.2675000000000001,0.019160311669111252,
2.27,0.022718310356140137,
2.2725,0.025482973083853722,
2.2749999999999999,0.029257338494062424,
2.2774999999999999,0.030627649277448654,
2.2799999999999998,0.031901799142360687,
2.2825000000000002,0.033296149224042892,
2.2850000000000001,0.036998391151428223,
2.2875000000000001,0.039618812501430511,
2.29,0.04291236400604248,
2.2925,0.046903096139431,
2.2949999999999999,0.057000122964382172,
2.2974999999999999,0.062793895602226257,
2.2999999999999998,0.068828068673610687,
2.3025000000000002,0.074814163148403168,
2.3050000000000002,0.085512205958366394,
2.3075000000000001,0.08981546014547348,
2.3100000000000001,0.093325376510620117,
2.3125,0.096090041100978851,
2.3149999999999999,0.10020097345113754,
2.3174999999999999,0.10214825719594955,
2.3199999999999998,0.10450422763824463,
2.3224999999999998,0.10762950032949448,
2.3250000000000002,0.11705338954925537,
2.3275000000000001,0.12352029979228973,
2.3300000000000001,0.13097286224365234,
2.3325,0.1390264481306076,
2.335,0.15503744781017303,
2.3374999999999999,0.16188900172710419,
2.3399999999999999,0.16729812324047089,
2.3424999999999998,0.17100036144256592,
2.3450000000000002,0.17289957404136658,
2.3475000000000001,0.17145714163780212,
2.3500000000000001,0.16886076331138611,
2.3525,0.16554316878318787,
2.355,0.15809059143066406,
2.3574999999999999,0.15448451042175293,
2.3599999999999999,0.15107075870037079,
2.3624999999999998,0.14782528579235077,
2.3650000000000002,0.14123818278312683,
2.3675000000000002,0.13739168643951416,
2.3700000000000001,0.13284802436828613,
2.3725000000000001,0.12722253799438477,
2.375,0.11157214641571045,
2.3774999999999999,0.10113855451345444,
2.3799999999999999,0.088901922106742859,
2.3824999999999998,0.075150728225708008,
2.3849999999999998,0.060341756790876389,
2.3875000000000002,0.030411284416913986,
2.3900000000000001,0.016924541443586349,
2.3925000000000001,0.0053850812837481499,
2.395,-0.010505716316401958,
2.3975,-0.015073418617248535,
2.3999999999999999,-0.018126567825675011,
2.4024999999999999,-0.020506581291556358,
2.4049999999999998,-0.026733081787824631,
2.4075000000000002,-0.031949877738952637,
2.4100000000000001,-0.038897596299648285,
2.4125000000000001,-0.047431986778974533,
2.415,-0.06673654168844223,
2.4175,-0.075823865830898285,
2.4199999999999999,-0.083324514329433441,
2.4224999999999999,-0.088541314005851746,
2.4249999999999998,-0.090728998184204102,
2.4275000000000002,-0.087796054780483246,
2.4300000000000002,-0.08269946277141571,
2.4325000000000001,-0.076160430908203125,
2.4350000000000001,-0.061928432434797287,
2.4375,-0.055701933801174164,
2.4399999999999999,-0.050821702927350998,
2.4424999999999999,-0.04752814769744873,
2.4449999999999998,-0.04582127183675766,
2.4474999999999998,-0.046975217759609222,
2.4500000000000002,-0.049066744744777679,
2.4525000000000001,-0.05180736631155014,
2.4550000000000001,-0.058154068887233734,
2.4575,-0.061471663415431976,
2.46,-0.064789257943630219,
2.4624999999999999,-0.068058773875236511,
2.4649999999999999,-0.073924660682678223,
2.4674999999999998,-0.076160430908203125,
2.4700000000000002,-0.077674984931945801,
2.4725000000000001,-0.078251957893371582,
2.4750000000000001,-0.076160430908203125,
2.4775,-0.073540017008781433,
2.48,-0.070102214813232422,
2.4824999999999999,-0.0661114901304245,
2.4849999999999999,-0.057769417762756348,
2.4874999999999998,-0.05401909351348877,
2.4900000000000002,-0.050941906869411469,
2.4925000000000002,-0.048706136643886566,
2.4950000000000001,-0.047383904457092285,
2.4975000000000001,-0.048345528542995453,
2.5,-0.050316851586103439,
2.5024999999999999,-0.053081512451171875,
2.5049999999999999,-0.059788823127746582,
2.5074999999999998,-0.062986217439174652,
2.5099999999999998,-0.065534517168998718,
2.5125000000000002,-0.067169271409511566,
2.5150000000000001,-0.067217350006103516,
2.5175000000000001,-0.065750882029533386,
2.52,-0.063683390617370605,
2.5225,-0.061279337853193283,
2.5249999999999999,-0.056879919022321701,
2.5274999999999999,-0.055269204080104828,
2.5299999999999998,-0.054091215133666992,
2.5325000000000002,-0.053273838013410568,
2.5350000000000001,-0.051951609551906586,
2.5375000000000001,-0.051014028489589691,
2.54,-0.04969179630279541,
2.5425,-0.047912798821926117,
2.5449999999999999,-0.043152771890163422,
2.5474999999999999,-0.040436189621686935,
2.5499999999999998,-0.037743650376796722,
2.5525000000000002,-0.035339593887329102,
2.5550000000000002,-0.032238364219665527,
2.5575000000000001,-0.031925838440656662,
2.5600000000000001,-0.032550893723964691,
2.5625,-0.034065447747707367,
2.5649999999999999,-0.039234161376953125,
2.5674999999999999,-0.042359434068202972,
2.5699999999999998,-0.045388542115688324,
2.5724999999999998,-0.048105120658874512,
2.5750000000000002,-0.05168716236948967,
2.5775000000000001,-0.052360296249389648,
2.5800000000000001,-0.052384339272975922,
2.5825,-0.051783323287963867,
2.585,-0.049114823341369629,
2.5874999999999999,-0.047167539596557617,
2.5899999999999999,-0.04478752613067627,
2.5924999999999998,-0.041998825967311859,
2.5950000000000002,-0.035003028810024261,
2.5975000000000001,-0.030964216217398643,
2.6000000000000001,-0.026805203408002853,
2.6025,-0.022718310356140137,
2.605,-0.016179284080862999,
2.6074999999999999,-0.014376243576407433,
2.6099999999999999,-0.013871392235159874,
2.6124999999999998,-0.01490513514727354,
2.6150000000000002,-0.021251838654279709,
2.6175000000000002,-0.026083987206220627,
2.6200000000000001,-0.031420987099409103,
2.6225000000000001,-0.036517582833766937,
2.625,-0.043128728866577148,
2.6274999999999999,-0.043200850486755371,
2.6299999999999999,-0.04046022891998291,
2.6324999999999998,-0.034834742546081543,
2.6349999999999998,-0.015962919220328331,
2.6375000000000002,-0.0041830539703369141,
2.6400000000000001,0.0078131761401891708,
2.6425000000000001,0.018967986106872559,
2.645,0.035003028810024261,
2.6475,0.038705270737409592,
2.6499999999999999,0.039354365319013596,
2.6524999999999999,0.037166677415370941,
2.6549999999999998,0.026636919006705284,
2.6575000000000002,0.019737284630537033,
2.6600000000000001,0.012645324692130089,
2.6625000000000001,0.0059380135498940945,
2.665,-0.0051687164232134819,
2.6675,-0.009447932243347168,
2.6699999999999999,-0.013102094642817974,
2.6724999999999999,-0.016419690102338791,
2.6749999999999998,-0.023127000778913498,
2.6775000000000002,-0.026925405487418175,
2.6800000000000002,-0.031108459457755089,
2.6825000000000001,-0.03550788015127182,
2.6850000000000001,-0.043873988091945648,
2.6875,-0.047167539596557617,
2.6899999999999999,-0.049475431442260742,
2.6924999999999999,-0.050629377365112305,
2.6949999999999998,-0.049547553062438965,
2.6974999999999998,-0.047672390937805176,
2.7000000000000002,-0.045292377471923828,
2.7025000000000001,-0.042720042169094086,
2.7050000000000001,-0.038368701934814453,
2.7075,-0.037238799035549164,
2.71,-0.037262838333845139,
2.7124999999999999,-0.03892163559794426,
2.7149999999999999,-0.049186944961547852,
2.7174999999999998,-0.058899324387311935,
2.7200000000000002,-0.072217784821987152,
2.7225000000000001,-0.08919040858745575,
2.7250000000000001,-0.13198256492614746,
2.7275,-0.15522977709770203,
2.73,-0.17691433429718018,
2.7324999999999999,-0.19436776638031006,
2.7349999999999999,-0.203935906291008,
2.7374999999999998,-0.18982410430908203,
2.7400000000000002,-0.15960514545440674,
2.7425000000000002,-0.111427903175354,
2.7450000000000001,0.04017174243927002,
2.7475000000000001,0.14097373187541962,
2.75,0.25420469045639038,
2.7524999999999999,0.37481606006622314,
2.7549999999999999,0.61219239234924316,
2.7574999999999998,0.71436464786529541,
2.7599999999999998,0.79583805799484253,
2.7625000000000002,0.8504101037979126,
2.7650000000000001,0.86274290084838867,
2.7675000000000001,0.81824386119842529,
2.77,0.74270844459533691,
2.7725,0.64130544662475586,
2.7749999999999999,0.39056262373924255,
2.7774999999999999,0.25845986604690552,
2.7799999999999998,0.13325671851634979,
2.7825000000000002,0.022189419716596603,
2.7850000000000001,-0.13804078102111816,
2.7875000000000001,-0.18311679363250732,
2.79,-0.20583510398864746,
2.7925,-0.20936906337738037,
2.7949999999999999,-0.17664989829063416,
2.7974999999999999,-0.15018126368522644,
2.7999999999999998,-0.12282311916351318,
2.8025000000000002,-0.097796916961669922,
2.8050000000000002,-0.061567824333906174,
2.8075000000000001,-0.051014028489589691,
2.8100000000000001,-0.044499039649963379,
2.8125,-0.040748715400695801,
2.8149999999999999,-0.036277174949645996,
2.8174999999999999,-0.033632718026638031,
2.8199999999999998,-0.030122797936201096,
2.8224999999999998,-0.025795500725507736,
2.8250000000000002,-0.016107162460684776,
2.8275000000000001,-0.011755824089050293,
2.8300000000000001,-0.0083180274814367294,
2.8325,-0.0061062974855303764,
2.835,-0.0056014461442828178,
2.8374999999999999,-0.0071160001680254936,
2.8399999999999999,-0.009447932243347168,
2.8424999999999998,-0.012212594971060753,
2.8450000000000002,-0.017237067222595215,
2.8475000000000001,-0.018559297546744347,
2.8500000000000001,-0.018583338707685471,
2.8525,-0.017044743523001671,
2.855,-0.009135405533015728,
2.8574999999999999,-0.0031252703629434109,
2.8599999999999999,0.0037022433243691921,
2.8624999999999998,0.010890364646911621,
2.8650000000000002,0.024040540680289268,
2.8675000000000002,0.029185216873884201,
2.8700000000000001,0.033079784363508224,
2.8725000000000001,0.035652123391628265,
2.875,0.037551324814558029,
2.8774999999999999,0.037503242492675781,
2.8799999999999999,0.037286877632141113,
2.8824999999999998,0.037334959954023361,
2.8849999999999998,0.039522647857666016,
2.8875000000000002,0.042191147804260254,
2.8900000000000001,0.046013593673706055,
2.8925000000000001,0.050941906869411469,
2.895,0.063394904136657715,
2.8975,0.07027050107717514,
2.8999999999999999,0.077073976397514343,
2.9024999999999999,0.083420678973197937,
2.9049999999999998,0.09339749813079834,
2.9075000000000002,0.096642971038818359,
2.9100000000000001,0.098614297807216644,
2.9125000000000001,0.099431678652763367,
2.915,0.098590254783630371,
2.9175,0.097700759768486023,
2.9199999999999999,0.097195908427238464,
2.9224999999999999,0.09767671674489975,
2.9249999999999998,0.10351856797933578,
2.9275000000000002,0.10964890569448471,
2.9300000000000002,0.11801501363515854,
2.9325000000000001,0.12835244834423065,
2.9350000000000001,0.15275359153747559,
2.9375,0.16513447463512421,
2.9399999999999999,0.17643353343009949,
2.9424999999999999,0.18590550124645233,
2.9449999999999998,0.1974930465221405,
2.9474999999999998,0.19948840141296387,
2.9500000000000002,0.19939224421977997,
2.9525000000000001,0.19780556857585907,
2.9550000000000001,0.19306957721710205,
2.9575,0.19119441509246826,
2.96,0.19023279845714569,
2.9624999999999999,0.19037704169750214,
2.9649999999999999,0.19347827136516571,
2.9674999999999998,0.19571404159069061,
2.9700000000000002,0.19770941138267517,
2.9725000000000001,0.19891142845153809,
2.9750000000000001,0.19669970870018005,
2.9775,0.19254069030284882,
2.98,0.186121866106987,
2.9824999999999999,0.17758747935295105,
2.9849999999999999,0.15556633472442627,
2.9874999999999998,0.14320950210094452,
2.9900000000000002,0.13078054785728455,
2.9925000000000002,0.11878430843353271,
2.9950000000000001,0.097219944000244141,
2.9975000000000001,0.087603732943534851,
3,0.078372165560722351,94.405593872070312
3.0024999999999999,0.069164633750915527,
3.0049999999999999,0.059476297348737717,
3.0074999999999998,0.037767689675092697,
3.0099999999999998,0.025747418403625488,
3.0125000000000002,0.013342499732971191,
3.0150000000000001,-0.010265311226248741,
3.0175000000000001,-0.020145973190665245,
3.02,-0.027935108169913292,
3.0225,-0.033199988305568695,
3.0249999999999999,-0.036036770790815353,
3.0274999999999999,-0.034113526344299316,
3.0299999999999998,-0.030699770897626877,
3.0325000000000002,-0.026540756225585938,
3.0350000000000001,-0.019160311669111252,
3.0375000000000001,-0.01721302792429924,
3.04,-0.016900500282645226,
3.0425,-0.01829485222697258,
3.0449999999999999,-0.02507428452372551,
3.0474999999999999,-0.029449662193655968,
3.0499999999999998,-0.033752918243408203,
3.0525000000000002,-0.037551324814558029,
3.0550000000000002,-0.042671959847211838,
3.0575000000000001,-0.044090352952480316,
3.0600000000000001,-0.045124094933271408,
3.0625,-0.046085715293884277,
3.0649999999999999,-0.048994623124599457,
3.0674999999999999,-0.051158271729946136,
3.0699999999999998,-0.053610406816005707,
3.0724999999999998,-0.0561346635222435,
3.0750000000000002,-0.059740744531154633,
3.0775000000000001,-0.060197513550519943,
3.0800000000000001,-0.059500336647033691,
3.0825,-0.057577095925807953,
3.085,-0.050893824547529221,
3.0874999999999999,-0.046734809875488281,
3.0899999999999999,-0.042551755905151367,
3.0924999999999998,-0.038729310035705566,
3.0950000000000002,-0.035580001771450043,
3.0975000000000001,-0.03197392076253891,
3.1000000000000001,-0.031613312661647797,
3.1025,-0.032094120979309082,
3.105,-0.034666460007429123,
3.1074999999999999,-0.036277174949645996,
3.1099999999999999,-0.03783981129527092,
3.1124999999999998,-0.039282243698835373,
3.1150000000000002,-0.041686296463012695,
3.1175000000000002,-0.04274408146739006,
3.1200000000000001,-0.043777823448181152,
3.1225000000000001,-0.044715404510498047,
3.125,-0.045917432755231857,
3.1274999999999999,-0.045773189514875412,
3.1299999999999999,-0.044859647750854492,
3.1324999999999998,-0.043128728866577148,
3.1349999999999998,-0.037334959954023361,
3.1375000000000002,-0.033752918243408203,
3.1400000000000001,-0.030243000015616417,
3.1425000000000001,-0.027141770347952843,
3.145,-0.023511648178100586,
3.1475,-0.023271244019269943,
3.1499999999999999,-0.024064581841230392,
3.1524999999999999,-0.025675296783447266,
3.1549999999999998,-0.030291080474853516,
3.1575000000000002,-0.032743215560913086,
3.1600000000000001,-0.035051107406616211,
3.1625000000000001,-0.036998391151428223,
3.165,-0.039739012718200684,
3.1675,-0.040484271943569183,
3.1699999999999999,-0.040892958641052246,
3.1724999999999999,-0.041013162583112717,
3.1749999999999998,-0.040772758424282074,
3.1775000000000002,-0.040628515183925629,
3.1800000000000002,-0.040604472160339355,
3.1825000000000001,-0.040700636804103851,
3.1850000000000001,-0.041253566741943359,
3.1875,-0.041493974626064301,
3.1899999999999999,-0.041493974626064301,
3.1924999999999999,-0.041157405823469162,
3.1949999999999998,-0.03908991813659668,
3.1974999999999998,-0.037455163896083832,
3.2000000000000002,-0.035628080368041992,
3.2025000000000001,-0.033801000565290451,
3.2050000000000001,-0.031348865479230881,
3.2075,-0.031108459457755089,
3.21,-0.031613312661647797,
3.2124999999999999,-0.032791297882795334,
3.2149999999999999,-0.034402012825012207,
3.2174999999999998,-0.037431120872497559,
3.2200000000000002,-0.037911932915449142,
3.2225000000000001,-0.037094555795192719,
3.2250000000000001,-0.034642420709133148,
3.2275,-0.024569433182477951,
3.23,-0.017477473244071007,
3.2324999999999999,-0.0098325815051794052,
3.2349999999999999,0.0035820405464619398,
3.2374999999999998,0.0075246891938149929,
3.2400000000000002,0.0086786355823278427,
3.2425000000000002,0.0067794322967529297,
3.2450000000000001,-0.0053129596635699272,
3.2475000000000001,-0.013943513855338097,
3.25,-0.022790431976318359,
3.2524999999999999,-0.030651688575744629,
3.2549999999999999,-0.036373339593410492,
3.2574999999999998,-0.038681231439113617,
3.2599999999999998,-0.034978985786437988,
3.2625000000000002,-0.028584202751517296,
3.2650000000000001,-0.01137117575854063,
3.2675000000000001,-0.0027165811043232679,
3.27,0.0046638650819659233,
3.2725,0.0100008649751544,
3.2749999999999999,0.012933811172842979,
3.2774999999999999,0.01185198687016964,
3.2799999999999998,0.0087267160415649414,
3.2825000000000002,0.0048802299425005913,
3.2850000000000001,-0.0018270810833200812,
3.2875000000000001,-0.0033656756859272718,
3.29,-0.0032454729080200195,
3.2925,-0.0015866756439208984,
3.2949999999999999,0.0049042701721191406,
3.2974999999999999,0.0084382295608520508,
3.2999999999999998,0.011226932518184185,
3.3025000000000002,0.012789567932486534,
3.3050000000000002,0.010986527428030968,
3.3075000000000001,0.0077891349792480469,
3.3100000000000001,0.0034858784638345242,
3.3125,-0.0014905135612934828,
3.3149999999999999,-0.011659662239253521,
3.3174999999999999,-0.016275446861982346,
3.3199999999999998,-0.020386379212141037,
3.3224999999999998,-0.023968419060111046,
3.3250000000000002,-0.029497742652893066,
3.3275000000000001,-0.031348865479230881,
3.3300000000000001,-0.032406650483608246,
3.3325,-0.032526850700378418,
3.335,-0.029497742652893066,
3.3374999999999999,-0.026564797386527061,
3.3399999999999999,-0.023199122399091721,
3.3424999999999998,-0.020097892731428146,
3.3450000000000002,-0.018174648284912109,
3.3475000000000001,-0.022213459014892578,
3.3500000000000001,-0.030243000015616417,
3.3525,-0.043345093727111816,
3.355,-0.085175633430480957,
3.3574999999999999,-0.11277417838573456,
3.3599999999999999,-0.14301717281341553,
3.3624999999999998,-0.17366886138916016,
3.3650000000000002,-0.22511562705039978,
3.3675000000000002,-0.23949186503887177,
3.3700000000000001,-0.24199208617210388,
3.3725000000000001,-0.22975544631481171,
3.375,-0.15251319110393524,
3.3774999999999999,-0.085608363151550293,
3.3799999999999999,-0.00055293244076892734,
3.3824999999999998,0.10046541690826416,
3.3849999999999998,0.33466836810112,
3.3875000000000002,0.4568183422088623,
3.3900000000000001,0.57341498136520386,
3.3925000000000001,0.67722201347351074,
3.395,0.81939780712127686,
3.3975,0.84697228670120239,
3.3999999999999999,0.84139490127563477,
3.4024999999999999,0.80247324705123901,
3.4049999999999998,0.63625693321228027,
3.4075000000000002,0.52045369148254395,
3.4100000000000001,0.39308688044548035,
3.4125000000000001,0.26273906230926514,
3.415,0.025050243362784386,
3.4175,-0.069669485092163086,
3.4199999999999999,-0.14308929443359375,
3.4224999999999999,-0.19393503665924072,
3.4249999999999998,-0.23280858993530273,
3.4275000000000002,-0.2268705815076828,
3.4300000000000002,-0.20936906337738037,
3.4325000000000001,-0.18465539813041687,
3.4350000000000001,-0.12823224067687988,
3.4375,-0.1021001785993576,
3.4399999999999999,-0.079526111483573914,
3.4424999999999999,-0.061135094612836838,
3.4449999999999998,-0.03658970445394516,
3.4474999999999998,-0.029353499412536621,
3.4500000000000002,-0.024569433182477951,
3.4525000000000001,-0.021684568375349045,
3.4550000000000001,-0.019905567169189453,
3.4575,-0.020482540130615234,
3.46,-0.021804770454764366,
3.4624999999999999,-0.023607810959219933,
3.4649999999999999,-0.027622580528259277,
3.4674999999999998,-0.029089054092764854,
3.4700000000000002,-0.02969006821513176,
3.4725000000000001,-0.029137134552001953,
3.4750000000000001,-0.027261972427368164,
3.4775,-0.019593041390180588,
3.48,-0.01430412195622921,
3.4824999999999999,-0.0084863109514117241,
3.4849999999999999,0.0029569864273071289,
3.4874999999999998,0.0078852977603673935,
3.4900000000000002,0.011924108490347862,
3.4925000000000002,0.01492917537689209,
3.4950000000000001,0.017790000885725021,
3.4975000000000001,0.017814040184020996,
3.5,0.017188986763358116,
3.5024999999999999,0.016179284080862999,
3.5049999999999999,0.014232000336050987,
3.5074999999999998,0.013895432464778423,
3.5099999999999998,0.014328162185847759,
3.5125000000000002,0.015554229728877544,
3.5150000000000001,0.02029021643102169,
3.5175000000000001,0.023463567718863487,
3.52,0.026877325028181076,
3.5225,0.030363202095031738,
3.5249999999999999,0.033825039863586426,
3.5274999999999999,0.040844880044460297,
3.5299999999999998,0.04473944753408432,
3.5325000000000002,0.049090784043073654,
3.5350000000000001,0.059692662209272385,
3.5375000000000001,0.065823003649711609,
3.54,0.072217784821987152,
3.5425,0.078612565994262695,
3.5449999999999999,0.089935660362243652,
3.5474999999999999,0.094383165240287781,
3.5499999999999998,0.097917124629020691,
3.5525000000000002,0.10058562457561493,
3.5550000000000002,0.10438402742147446,
3.5575000000000001,0.10625918954610825,
3.5600000000000001,0.10866324603557587,
3.5625,0.11195679754018784,
3.5649999999999999,0.12222211062908173,
3.5674999999999999,0.12929002940654755,
3.5699999999999998,0.13739168643951416,
3.5724999999999998,0.14609436690807343,
3.5750000000000002,0.16325931251049042,
3.5775000000000001,0.17051956057548523,
3.5800000000000001,0.17628929018974304,
3.5825,0.18030405044555664,
3.585,0.18287639319896698,
3.5874999999999999,0.18203496932983398,
3.5899999999999999,0.18035213649272919,
3.5924999999999998,0.17833273112773895,
3.5950000000000002,0.17489492893218994,
3.5975000000000001,0.17390927672386169,
3.6000000000000001,0.17335633933544159,
3.6025,0.17309188842773438,
3.605,0.17196199297904968,
3.6074999999999999,0.17044743895530701,
3.6099999999999999,0.16792318224906921,
3.6124999999999998,0.16424497961997986,
3.6150000000000002,0.15323440730571747,
3.6175000000000002,0.1460222452878952,
3.6200000000000001,0.13792058825492859,
3.6225000000000001,0.12912175059318542,
3.625,0.11008163541555405,
3.6274999999999999,0.10012885183095932,
3.6299999999999999,0.090007781982421875,
3.6324999999999998,0.079670354723930359,
3.6349999999999998,0.058274269104003906,
3.6375000000000002,0.04719158262014389,
3.6400000000000001,0.035964649170637131,
3.6425000000000001,0.024809837341308594,
3.645,0.0037743649445474148,
3.6475,-0.0053369998931884766,
3.6499999999999999,-0.013126134872436523,
3.6524999999999999,-0.019400715827941895,
3.6549999999999998,-0.027574500069022179,
3.6575000000000002,-0.029930472373962402,
3.6600000000000001,-0.031661391258239746,
3.6625000000000001,-0.033175945281982422,
3.665,-0.036950312554836273,
3.6675,-0.039570730179548264,
3.6699999999999999,-0.042720042169094086,
3.6724999999999999,-0.046278040856122971,
3.6749999999999998,-0.050028365105390549,
3.6775000000000002,-0.057312648743391037,
3.6800000000000002,-0.060510039329528809,
3.6825000000000001,-0.063226625323295593,
3.6850000000000001,-0.066952906548976898,
3.6875,-0.067890487611293793,
3.6899999999999999,-0.068275138735771179,
3.6924999999999999,-0.06815493106842041,
3.6949999999999998,-0.066952906548976898,
3.6974999999999998,-0.066231690347194672,
3.7000000000000002,-0.065606638789176941,
3.7025000000000001,-0.065221987664699554,
3.7050000000000001,-0.065077744424343109,
3.7075,-0.065101787447929382,
3.71,-0.064885422587394714,
3.7124999999999999,-0.064260363578796387,
3.7149999999999999,-0.060846608132123947,
3.7174999999999998,-0.058009825646877289,
3.7200000000000002,-0.054572027176618576,
3.7225000000000001,-0.05077362060546875,
3.7250000000000001,-0.043513379991054535,
3.7275,-0.040820837020874023,
3.73,-0.039186082780361176,
3.7324999999999999,-0.038801431655883789,
3.7349999999999999,-0.041950743645429611,
3.7374999999999998,-0.045148134231567383,
3.7400000000000002,-0.049018662422895432,
3.7425000000000002,-0.053081512451171875,
3.7450000000000001,-0.059981148689985275,
3.7475000000000001,-0.062024593353271484,
3.75,-0.06286601722240448,
3.7524999999999999,-0.06245732307434082,
3.7549999999999999,-0.058682959526777267,
3.7574999999999998,-0.056014459580183029,
3.7599999999999998,-0.053321920335292816,
3.7625000000000002,-0.050893824547529221,
3.7650000000000001,-0.047504108399152756,
3.7675000000000001,-0.046542488038539886,
3.77,-0.045869350433349609,
3.7725,-0.045388542115688324,
3.7749999999999999,-0.044330757111310959,
3.7774999999999999,-0.043777823448181152,
3.7799999999999998,-0.043321054428815842,
3.7825000000000002,-0.043080650269985199,
3.7850000000000001,-0.04399418830871582,
3.7875000000000001,-0.045292377471923828,
3.79,-0.047143500298261642,
3.7925,-0.049475431442260742,
3.7949999999999999,-0.054668188095092773,
3.7974999999999999,-0.057024162262678146,
3.7999999999999998,-0.058827202767133713,
3.8025000000000002,-0.059788823127746582,
3.8050000000000002,-0.058346390724182129,
3.8075000000000001,-0.055701933801174164,
3.8100000000000001,-0.05185544490814209,
3.8125,-0.047047339379787445,
3.8149999999999999,-0.036084853112697601,
3.8174999999999999,-0.030988257378339767,
3.8199999999999998,-0.026781162247061729,
3.8224999999999998,-0.023944377899169922,
3.8250000000000002,-0.023127000778913498,
3.8275000000000001,-0.025122364982962608,
3.8300000000000001,-0.028391879051923752,
3.8325,-0.032550893723964691,
3.835,-0.041734378784894943,
3.8374999999999999,-0.045893393456935883,
3.8399999999999999,-0.049331188201904297,
3.8424999999999998,-0.051783323287963867,
3.8450000000000002,-0.053249798715114594,
3.8475000000000001,-0.052167974412441254,
3.8500000000000001,-0.049980282783508301,
3.8525,-0.046830974519252777,
3.855,-0.038512945175170898,
3.8574999999999999,-0.033969283103942871,
3.8599999999999999,-0.029569864273071289,
3.8624999999999998,-0.025579135864973068,
3.8650000000000002,-0.019761323928833008,
3.8675000000000002,-0.018102526664733887,
3.8700000000000001,-0.017285149544477463,
3.8725000000000001,-0.017261108383536339,
3.875,-0.018943946808576584,
3.8774999999999999,-0.02029021643102169,
3.8799999999999999,-0.021684568375349045,
3.8824999999999998,-0.022958716377615929,
3.8849999999999998,-0.024521350860595703,
3.8875000000000002,-0.02461751364171505,
3.8900000000000001,-0.024353068321943283,
3.8925000000000001,-0.023872256278991699,
3.895,-0.023415487259626389,
3.8975,-0.024112662300467491,
3.8999999999999999,-0.025747418403625488,
3.9024999999999999,-0.028415918350219727,
3.9049999999999998,-0.036205053329467773,
3.9075000000000002,-0.04046022891998291,
3.9100000000000001,-0.044162474572658539,
3.9125000000000001,-0.046614609658718109,
3.915,-0.045388542115688324,
3.9175,-0.041061244904994965,
3.9199999999999999,-0.034161608666181564,
3.9224999999999999,-0.025002162903547287,
3.9249999999999998,-0.0024521350860595703,
3.9275000000000002,0.009351770393550396,
3.9300000000000002,0.020314257591962814,
3.9325000000000001,0.02952178381383419,
3.9350000000000001,0.040003459900617599,
3.9375,0.040484271943569183,
3.9399999999999999,0.037719607353210449,
3.9424999999999999,0.032021999359130859,
3.9449999999999998,0.014135837554931641,
3.9474999999999998,0.0035099189262837172,
3.9500000000000002,-0.0072602434083819389,
3.9525000000000001,-0.017525553703308105,
3.9550000000000001,-0.034930907189846039,
3.9575,-0.041782461106777191,
3.96,-0.047456026077270508,
3.9624999999999999,-0.052095852792263031,
3.9649999999999999,-0.05863487720489502,
3.9674999999999998,-0.060510039329528809,
3.9700000000000002,-0.061351459473371506,
3.9725000000000001,-0.060990851372480392,
3.9750000000000001,-0.056351028382778168,
3.9775,-0.052216053009033203,
3.98,-0.047263704240322113,
3.9824999999999999,-0.041950743645429611,
3.9849999999999999,-0.033079784363508224,
3.9874999999999998,-0.031084418296813965,
3.9900000000000002,-0.031829677522182465,
3.9925000000000002,-0.036036770790815353,
3.9950000000000001,-0.056639514863491058,
3.9975000000000001,-0.073347687721252441,
4,-0.093830227851867676,95.23809814453125
4.0025000000000004,-0.11729379743337631,
4.0049999999999999,-0.1675625741481781,
4.0075000000000003,-0.19061744213104248,
4.0099999999999998,-0.2092488706111908,
4.0125000000000002,-0.22095660865306854,
4.0149999999999997,-0.21347999572753906,
4.0175000000000001,-0.18970391154289246,
4.0199999999999996,-0.15025338530540466,
4.0225,-0.094118714332580566,
4.0250000000000004,0.066976949572563171,
4.0274999999999999,0.16842803359031677,
4.0300000000000002,0.27923089265823364,
4.0324999999999998,0.39426487684249878,
4.0350000000000001,0.61166346073150635,
4.0374999999999996,0.70003652572631836,
4.04,0.76581144332885742,
4.0425000000000004,0.80355507135391235,
4.0449999999999999,0.78211092948913574,
4.0475000000000003,0.72251439094543457,
4.0499999999999998,0.6342616081237793,
4.0525000000000002,0.52324235439300537,
4.0549999999999997,0.26442191004753113,
4.0575000000000001,0.13407409191131592,
4.0599999999999996,0.014159878715872765,
4.0625,-0.088541314005851746,
4.0650000000000004,-0.22595703601837158,
4.0674999999999999,-0.25821945071220398,
4.0700000000000003,-0.26824435591697693,
4.0724999999999998,-0.25985419750213623,
4.0750000000000002,-0.20746986567974091,
4.0774999999999997,-0.17369291186332703,
4.0800000000000001,-0.14068524539470673,
4.0824999999999996,-0.11150002479553223,
4.085,-0.070583030581474304,
4.0875000000000004,-0.058971446007490158,
4.0899999999999999,-0.052071809768676758,
4.0925000000000002,-0.04844168946146965,
4.0949999999999998,-0.045628946274518967,
4.0975000000000001,-0.044499039649963379,
4.0999999999999996,-0.042840242385864258,
4.1025,-0.040556393563747406,
4.1050000000000004,-0.034930907189846039,
4.1074999999999999,-0.032021999359130859,
4.1100000000000003,-0.029377540573477745,
4.1124999999999998,-0.027093689888715744,
4.1150000000000002,-0.023728013038635254,
4.1174999999999997,-0.022598108276724815,
4.1200000000000001,-0.02170860767364502,
4.1224999999999996,-0.020939311012625694,
4.125,-0.019160311669111252,
4.1275000000000004,-0.017741918563842773,
4.1299999999999999,-0.015770595520734787,
4.1325000000000003,-0.013102094642817974,
4.1349999999999998,-0.0058658919297158718,
4.1375000000000002,-0.0017790000420063734,
4.1399999999999997,0.0022117297630757093,
4.1425000000000001,0.0056254863739013672,
4.1449999999999996,0.0094960136339068413,
4.1475,0.0097123784944415092,
4.1500000000000004,0.00891904067248106,
4.1524999999999999,0.0075727701187133789,
4.1550000000000002,0.0055052838288247585,
4.1574999999999998,0.0059620542451739311,
4.1600000000000001,0.0080295410007238388,
4.1624999999999996,0.011900067329406738,
4.165,0.024040540680289268,
4.1675000000000004,0.031252704560756683,
4.1699999999999999,0.038152337074279785,
4.1725000000000003,0.044018231332302094,
4.1749999999999998,0.050461094826459885,
4.1775000000000002,0.050821702927350998,
4.1799999999999997,0.049787960946559906,
4.1825000000000001,0.048201285302639008,
4.1849999999999996,0.04735986515879631,
4.1875,0.050052404403686523,
4.1900000000000004,0.055605769157409668,
4.1924999999999999,0.064068041741847992,
4.1950000000000003,0.087579689919948578,
4.1974999999999998,0.10060966014862061,
4.2000000000000002,0.11299054324626923,
4.2024999999999997,0.12364050000905991,
4.2050000000000001,0.13729552924633026,
4.2074999999999996,0.14013230800628662,
4.21,0.14085352420806885,
4.2125000000000004,0.14025251567363739,
4.2149999999999999,0.13849756121635437,
4.2175000000000002,0.13876199722290039,
4.2199999999999998,0.14037272334098816,
4.2225000000000001,0.14340183138847351,
4.2249999999999996,0.15280167758464813,
4.2275,0.1583310067653656,
4.2300000000000004,0.16364395618438721,
4.2324999999999999,0.16823570430278778,
4.2350000000000003,0.17374098300933838,
4.2374999999999998,0.17417371273040771,
4.2400000000000002,0.1730678528547287,
4.2424999999999997,0.17059168219566345,
4.2450000000000001,0.16277849674224854,
4.2474999999999996,0.15823483467102051,
4.25,0.15373925864696503,
4.2525000000000004,0.14950811862945557,
4.2549999999999999,0.14215171337127686,
4.2575000000000003,0.13871392607688904,
4.2599999999999998,0.13513188064098358,
4.2625000000000002,0.13104498386383057,
4.2649999999999997,0.12037098407745361,
4.2675000000000001,0.11349539458751678,
4.2699999999999996,0.10553797334432602,
4.2725,0.096667014062404633,
4.2750000000000004,0.077001854777336121,
4.2774999999999999,0.066760584712028503,
4.2800000000000002,0.056567393243312836,
4.2824999999999998,0.046710770577192307,
4.2850000000000001,0.028584202751517296,
4.2874999999999996,0.020530622452497482,
4.29,0.013150176033377647,
4.2925000000000004,0.0063226623460650444,
4.2949999999999999,-0.0061784191057085991,
4.2975000000000003,-0.012260675430297852,
4.2999999999999998,-0.018415054306387901,
4.3025000000000002,-0.024713676422834396,
4.3049999999999997,-0.037503242492675781,
4.3075000000000001,-0.043609540909528732,
4.3099999999999996,-0.049162905663251877,
4.3125,-0.053922932595014572,
4.3150000000000004,-0.060149431228637695,
4.3174999999999999,-0.061423581093549728,
4.3200000000000003,-0.061495702713727951,
4.3224999999999998,-0.060461960732936859,
4.3250000000000002,-0.056038498878479004,
4.3274999999999997,-0.053201716393232346,
4.3300000000000001,-0.050388973206281662,
4.3324999999999996,-0.047960877418518066,
4.335,-0.045220255851745605,
4.3375000000000004,-0.045340459793806076,
4.3399999999999999,-0.046470366418361664,
4.3425000000000002,-0.04844168946146965,
4.3449999999999998,-0.053778689354658127,
4.3475000000000001,-0.05630294606089592,
4.3499999999999996,-0.058250229805707932,
4.3525,-0.059332054108381271,
4.3550000000000004,-0.058490633964538574,
4.3574999999999999,-0.056831836700439453,
4.3600000000000003,-0.054668188095092773,
4.3624999999999998,-0.052336256951093674,
4.3650000000000002,-0.048225324600934982,
4.3674999999999997,-0.046662688255310059,
4.3700000000000001,-0.045484703034162521,
4.3724999999999996,-0.044571161270141602,
4.375,-0.043008528649806976,
4.3775000000000004,-0.042215190827846527,
4.3799999999999999,-0.041421853005886078,
4.3825000000000003,-0.040652554482221603,
4.3849999999999998,-0.039931338280439377,
4.3875000000000002,-0.040243864059448242,
4.3899999999999997,-0.041181445121765137,
4.3925000000000001,-0.042792163789272308,
4.3949999999999996,-0.047816634178161621,
4.3975,-0.050941906869411469,
4.4000000000000004,-0.054115258157253265,
4.4024999999999999,-0.057000122964382172,
4.4050000000000002,-0.060606203973293304,
4.4074999999999998,-0.060702364891767502,
4.4100000000000001,-0.059452258050441742,
4.4124999999999996,-0.056879919022321701,
4.415,-0.048537850379943848,
4.4175000000000004,-0.043513379991054535,
4.4199999999999999,-0.038464866578578949,
4.4225000000000003,-0.033849082887172699,
4.4249999999999998,-0.027189850807189941,
4.4275000000000002,-0.025434892624616623,
4.4299999999999997,-0.024713676422834396,
4.4325000000000001,-0.024930041283369064,
4.4349999999999996,-0.027189850807189941,
4.4375,-0.028824608772993088,
4.4400000000000004,-0.030507445335388184,
4.4424999999999999,-0.032046042382717133,
4.4450000000000003,-0.03430585190653801,
4.4474999999999998,-0.034858785569667816,
4.4500000000000002,-0.035099189728498459,
4.4524999999999997,-0.035003028810024261,
4.4550000000000001,-0.034161608666181564,
4.4574999999999996,-0.033584635704755783,
4.46,-0.032935541123151779,
4.4625000000000004,-0.032166242599487305,
4.4649999999999999,-0.030050676316022873,
4.4675000000000002,-0.028439959511160851,
4.4699999999999998,-0.026396512985229492,
4.4725000000000001,-0.023920338600873947,
4.4749999999999996,-0.018126567825675011,
4.4775,-0.015241703018546104,
4.4800000000000004,-0.01276552677154541,
4.4824999999999999,-0.010962486267089844,
4.4850000000000003,-0.010145108215510845,
4.4874999999999998,-0.011250972747802734,
4.4900000000000002,-0.013342499732971191,
4.4924999999999997,-0.016227364540100098,
4.4950000000000001,-0.023223161697387695,
4.4974999999999996,-0.026660960167646408,
4.5,-0.029545824974775314,
4.5025000000000004,-0.031445026397705078,
4.5049999999999999,-0.031252704560756683,
4.5075000000000003,-0.02889673039317131,
4.5099999999999998,-0.025170445442199707,
4.5125000000000002,-0.020530622452497482,
4.5149999999999997,-0.010962486267089844,
4.5175000000000001,-0.0075727701187133789,
4.5199999999999996,-0.0060101351700723171,
4.5225,-0.0067553920671343803,
4.5250000000000004,-0.015169581398367882,
4.5274999999999999,-0.021924972534179688,
4.5300000000000002,-0.029329460114240646,
4.5324999999999998,-0.036277174949645996,
4.5350000000000001,-0.044835608452558517,
4.5374999999999996,-0.045003890991210938,
4.54,-0.041950743645429611,
4.5425000000000004,-0.035892527550458908,
4.5449999999999999,-0.017237067222595215,
4.5475000000000003,-0.0064428648911416531,
4.5499999999999998,0.0039186081849038601,
4.5525000000000002,0.012909770011901855,
4.5549999999999997,0.023896297439932823,
4.5575000000000001,0.025170445442199707,
4.5599999999999996,0.023728013038635254,
4.5625,0.019977688789367676,
4.5650000000000004,0.0081978244706988335,
4.5674999999999999,0.0017309188842773438,
4.5700000000000003,-0.0041830539703369141,
4.5724999999999998,-0.0090632839128375053,
4.5750000000000002,-0.01461664866656065,
4.5774999999999997,-0.01538594625890255,
4.5800000000000001,-0.015097459778189659,
4.5824999999999996,-0.014087757095694542,
4.585,-0.01105864904820919,
4.5875000000000004,-0.0093998517841100693,
4.5899999999999999,-0.0077650947496294975,
4.5925000000000002,-0.0060582160949707031,
4.5949999999999998,-0.0017790000420063734,
4.5975000000000001,0.0011058648815378547,
4.5999999999999996,0.0047600269317626953,
4.6025,0.0091834869235754013,
4.6050000000000004,0.020073851570487022,
4.6074999999999999,0.02598782442510128,
4.6100000000000003,0.031589269638061523,
4.6124999999999998,0.036301217973232269,
4.6150000000000002,0.040484271943569183,
4.6174999999999997,0.038969717919826508,
4.6200000000000001,0.034714542329311371,
4.6224999999999996,0.027862986549735069,
4.625,0.0085343923419713974,
4.6275000000000004,-0.002283851383253932,
4.6299999999999999,-0.012621283531188965,
4.6325000000000003,-0.021612446755170822,
4.6349999999999998,-0.033320188522338867,
4.6375000000000002,-0.035748284310102463,
4.6399999999999997,-0.036205053329467773,
4.6425000000000001,-0.035171311348676682,
4.6449999999999996,-0.031036337837576866,
4.6475,-0.028824608772993088,
4.6500000000000004,-0.026877325028181076,
4.6524999999999999,-0.025170445442199707,
4.6550000000000002,-0.021804770454764366,
4.6574999999999998,-0.019713243469595909,
4.6600000000000001,-0.017164945602416992,
4.6624999999999996,-0.014280080795288086,
4.665,-0.009351770393550396,
4.6675000000000004,-0.0087267160415649414,
4.6699999999999999,-0.010577837936580181,
4.6725000000000003,-0.015818675979971886,
4.6749999999999998,-0.03937840461730957,
4.6775000000000002,-0.058274269104003906,
4.6799999999999997,-0.081497430801391602,
4.6825000000000001,-0.10806223005056381,
4.6849999999999996,-0.16470174491405487,
4.6875,-0.19040107727050781,
4.6900000000000004,-0.21090766787528992,
4.6924999999999999,-0.22343277931213379,
4.6950000000000003,-0.21321555972099304,
4.6974999999999998,-0.1853766143321991,
4.7000000000000002,-0.13974766433238983,
4.7024999999999997,-0.075150728225708008,
4.7050000000000001,0.10976910591125488,
4.7074999999999996,0.2260291576385498,
4.71,0.35279494524002075,
4.7125000000000004,0.48400819301605225,
4.7149999999999999,0.72972655296325684,
4.7175000000000002,0.82783603668212891,
4.7199999999999998,0.89914023876190186,
4.7225000000000001,0.93760514259338379,
4.7249999999999996,0.90373200178146362,
4.7275,0.83252394199371338,
4.7300000000000004,0.73064011335372925,
4.7324999999999999,0.60550910234451294,
4.7350000000000003,0.32238364219665527,
4.7374999999999998,0.18366973102092743,
4.7400000000000002,0.058442555367946625,
4.7424999999999997,-0.046855013817548752,
4.7450000000000001,-0.18403033912181854,
4.7474999999999996,-0.21533112227916718,
4.75,-0.22504350543022156,
4.7525000000000004,-0.21759092807769775,
4.7549999999999999,-0.17174562811851501,
4.7575000000000003,-0.14340183138847351,
4.7599999999999998,-0.11681298911571503,
4.7625000000000002,-0.094623565673828125,
4.7649999999999997,-0.06786644458770752,
4.7675000000000001,-0.062890052795410156,
4.7699999999999996,-0.062072675675153732,
4.7725,-0.063875719904899597,
4.7750000000000004,-0.069164633750915527,
4.7774999999999999,-0.070198379456996918,
4.7800000000000002,-0.069092512130737305,
4.7824999999999998,-0.065582595765590668,
4.7850000000000001,-0.051879487931728363,
4.7874999999999996,-0.042599838227033615,
4.79,-0.032647054642438889,
4.7925000000000004,-0.022790431976318359,
4.7949999999999999,-0.0061062974855303764,
4.7975000000000003,-0.00036060810089111328,
4.7999999999999998,0.0033656756859272718,
4.8025000000000002,0.0051927566528320312,
4.8049999999999997,0.004519621841609478,
4.8075000000000001,0.0031973919831216335,
4.8099999999999996,0.0019232432823628187,
4.8125,0.0011539459228515625,
4.8150000000000004,0.0017790000420063734,
4.8174999999999999,0.0029569864273071289,
4.8200000000000003,0.004399418830871582,
4.8224999999999998,0.0056976079940795898,
4.8250000000000002,0.0069717569276690483,
4.8274999999999997,0.0068515539169311523,
4.8300000000000001,0.0063947839662432671,
4.8324999999999996,0.0059139728546142578,
4.835,0.0063467025756835938,
4.8375000000000004,0.0078612565994262695,
4.8399999999999999,0.010481676086783409,
4.8425000000000002,0.014159878715872765,
4.8449999999999998,0.023824175819754601,
4.8475000000000001,0.029137134552001953,
4.8499999999999996,0.034257769584655762,
4.8525,0.038777392357587814,
4.8550000000000004,0.045124094933271408,
4.8574999999999999,0.046830974519252777,
4.8600000000000003,0.047816634178161621,
4.8624999999999998,0.048465728759765625,
4.8650000000000002,0.050677459686994553,
4.8674999999999997,0.053249798715114594,
4.8700000000000001,0.057240527123212814,
4.8724999999999996,0.062793895602226257,
4.875,0.07813175767660141,
4.8775000000000004,0.087219081819057465,
4.8799999999999999,0.096642971038818359,
4.8825000000000003,0.10592262446880341,
4.8849999999999998,0.12270291894674301,
4.8875000000000002,0.12986700236797333,
4.8899999999999997,0.13616561889648438,
4.8925000000000001,0.14171898365020752,
4.8949999999999996,0.15114288032054901,
4.8975,0.1552538126707077,
4.9000000000000004,0.15912434458732605,
4.9024999999999999,0.16282658278942108,
4.9050000000000002,0.16987046599388123,
4.9074999999999998,0.17335633933544159,
4.9100000000000001,0.17677009105682373,
4.9124999999999996,0.18008768558502197,
4.915,0.18590550124645233,
4.9175000000000004,0.18792490661144257,
4.9199999999999999,0.18898269534111023,
4.9225000000000003,0.18883845210075378,
4.9249999999999998,0.18419861793518066,
4.9275000000000002,0.17967900633811951,
4.9299999999999997,0.17386119067668915,
4.9325000000000001,0.16705772280693054,
4.9349999999999996,0.15210449695587158,
4.9375,0.14472405612468719,
4.9400000000000004,0.13789653778076172,
4.9424999999999999,0.13186237215995789,
4.9450000000000003,0.12210190296173096,
4.9474999999999998,0.11801501363515854,
4.9500000000000002,0.11390408128499985,
4.9524999999999997,0.1092882975935936,
4.9550000000000001,0.096667014062404633,
4.9574999999999996,0.087964341044425964,
4.96,0.077626906335353851,
4.9625000000000004,0.065847039222717285,
4.9649999999999999,0.040075581520795822,
4.9675000000000002,0.027430256828665733,
4.9699999999999998,0.015746554359793663,
4.9725000000000001,0.0055533647537231445,
4.9749999999999996,-0.0097845001146197319,
4.9775,-0.015241703018546104,
4.9800000000000004,-0.01966516301035881,
4.9824999999999999,-0.023583769798278809,
4.9850000000000003,-0.031565230339765549,
4.9874999999999998,-0.036108892410993576,
4.9900000000000002,-0.041109323501586914,
4.9924999999999997,-0.046350162476301193,
4.9950000000000001,-0.056351028382778168,
4.9974999999999996,-0.060437917709350586,
5,-0.063515111804008484,94.5709228515625
5.0025000000000004,-0.065390273928642273,
5.0049999999999999,-0.065558552742004395,
5.0075000000000003,-0.064212284982204437,
5.0099999999999998,-0.062385201454162598,
5.0125000000000002,-0.060461960732936859,
5.0149999999999997,-0.058105986565351486,
5.0175000000000001,-0.058274269104003906,
5.0199999999999996,-0.059500336647033691,
5.0225,-0.061639945954084396,
5.0250000000000004,-0.067241393029689789,
5.0274999999999999,-0.069717571139335632,
5.0300000000000002,-0.071376368403434753,
5.0324999999999998,-0.071857176721096039,
5.0350000000000001,-0.068948268890380859,
5.0374999999999996,-0.065895125269889832,
5.04,-0.062216918915510178,
5.0425000000000004,-0.058418512344360352,
5.0449999999999999,-0.052047770470380783,
5.0475000000000003,-0.050004325807094574,
5.0499999999999998,-0.048922501504421234,
5.0525000000000002,-0.048706136643886566,
5.0549999999999997,-0.050316851586103439,
5.0575000000000001,-0.051759283989667892,
5.0599999999999996,-0.053442120552062988,
5.0625,-0.05522112175822258,
5.0650000000000004,-0.058851242065429688,
5.0674999999999999,-0.060606203973293304,
5.0700000000000003,-0.062313079833984375,
5.0724999999999998,-0.063875719904899597,
5.0750000000000002,-0.066063404083251953,
5.0774999999999997,-0.066351890563964844,
5.0800000000000001,-0.065798960626125336,
5.0824999999999996,-0.064260363578796387,
5.085,-0.057985782623291016,
5.0875000000000004,-0.053514242172241211,
5.0899999999999999,-0.04860997200012207,
5.0925000000000002,-0.0438259057700634,
5.0949999999999998,-0.036854147911071777,
5.0975000000000001,-0.03567616268992424,
5.0999999999999996,-0.036373339593410492,
5.1025,-0.038777392357587814,
5.1050000000000004,-0.046951174736022949,
5.1074999999999999,-0.051278471946716309,
5.1100000000000003,-0.054812431335449219,
5.1124999999999998,-0.056928001344203949,
5.1150000000000002,-0.056014459580183029,
5.1174999999999997,-0.053369998931884766,
5.1200000000000001,-0.049908161163330078,
5.1224999999999996,-0.046278040856122971,
5.125,-0.040965080261230469,
5.1275000000000004,-0.039955377578735352,
5.1299999999999999,-0.04012366384267807,
5.1325000000000003,-0.04120548814535141,
5.1349999999999998,-0.044162474572658539,
5.1375000000000002,-0.045051973313093185,
5.1399999999999997,-0.045027934014797211,
5.1425000000000001,-0.043873988091945648,
5.1449999999999996,-0.038488905876874924,
5.1475,-0.034834742546081543,
5.1500000000000004,-0.031132500618696213,
5.1524999999999999,-0.027935108169913292,
5.1550000000000002,-0.024665594100952148,
5.1574999999999998,-0.025170445442199707,
5.1600000000000001,-0.027213891968131065,
5.1624999999999996,-0.03060360811650753,
5.165,-0.040219824761152267,
5.1675000000000004,-0.045580863952636719,
5.1699999999999999,-0.05077362060546875,
5.1725000000000003,-0.055389404296875,
5.1749999999999998,-0.061856310814619064,
5.1775000000000002,-0.063346825540065765,
5.1799999999999997,-0.063515111804008484,
5.1825000000000001,-0.062313079833984375,
5.1849999999999996,-0.055966377258300781,
5.1875,-0.050989985466003418,
5.1900000000000004,-0.045196216553449631,
5.1924999999999999,-0.03892163559794426,
5.1950000000000003,-0.026949446648359299,
5.1974999999999998,-0.022309621796011925,
5.2000000000000002,-0.019184350967407227,
5.2024999999999997,-0.017765959724783897,
5.2050000000000001,-0.020049810409545898,
5.2074999999999996,-0.023127000778913498,
5.21,-0.026853283867239952,
5.2125000000000004,-0.030627649277448654,
5.2149999999999999,-0.033873122185468674,
5.2175000000000002,-0.037407081574201584,
5.2199999999999998,-0.037310920655727386,
5.2225000000000001,-0.036084853112697601,
5.2249999999999996,-0.031493108719587326,
5.2275,-0.028920769691467285,
5.2300000000000004,-0.026757121086120605,
5.2324999999999999,-0.025386810302734375,
5.2350000000000003,-0.025891661643981934,
5.2374999999999998,-0.027766823768615723,
5.2400000000000002,-0.030459364876151085,
5.2424999999999997,-0.033560596406459808,
5.2450000000000001,-0.03904183954000473,
5.2474999999999996,-0.040556393563747406,
5.25,-0.040941040962934494,
5.2525000000000004,-0.04017174243927002,
5.2549999999999999,-0.036277174949645996,
5.2575000000000003,-0.03413756936788559,
5.2599999999999998,-0.032478772103786469,
5.2625000000000002,-0.031709473580121994,
5.2649999999999997,-0.03305574506521225,
5.2675000000000001,-0.034690499305725098,
5.2699999999999996,-0.036349296569824219,
5.2725,-0.037407081574201584,
5.2750000000000004,-0.03584444522857666,
5.2774999999999999,-0.032815337181091309,
5.2800000000000002,-0.028415918350219727,
5.2824999999999998,-0.023151040077209473,
5.2850000000000001,-0.012645324692130089,
5.2874999999999996,-0.008822878822684288,
5.29,-0.0067794322967529297,
5.2925000000000004,-0.006827513687312603,
5.2949999999999999,-0.013054013252258301,
5.2975000000000003,-0.018535256385803223,
5.2999999999999998,-0.024713676422834396,
5.3025000000000002,-0.030795931816101074,
5.3049999999999997,-0.039618812501430511,
5.3075000000000001,-0.041181445121765137,
5.3099999999999996,-0.04046022891998291,
5.3125,-0.037431120872497559,
5.3150000000000004,-0.025771459564566612,
5.3174999999999999,-0.018078487366437912,
5.3200000000000003,-0.0098566217347979546,
5.3224999999999998,-0.0016107162227854133,
5.3250000000000002,0.013462702743709087,
5.3274999999999997,0.019809406250715256,
5.3300000000000001,0.025146406143903732,
5.3324999999999996,0.029377540573477745,
5.335,0.034113526344299316,
5.3375000000000004,0.034377973526716232,
5.3399999999999999,0.033151905983686447,
5.3425000000000002,0.030363202095031738,
5.3449999999999998,0.020362338051199913,
5.3475000000000001,0.013462702743709087,
5.3499999999999996,0.0056495270691812038,
5.3525,-0.0027406215667724609,
5.3550000000000004,-0.019641121849417686,
5.3574999999999999,-0.027406215667724609,
5.3600000000000003,-0.034209690988063812,
5.3624999999999998,-0.039763055741786957,
5.3650000000000002,-0.046398244798183441,
5.3674999999999997,-0.047456026077270508,
5.3700000000000001,-0.04719158262014389,
5.3724999999999996,-0.04598955437541008,
5.375,-0.042311351746320724,
5.3775000000000004,-0.040652554482221603,
5.3799999999999999,-0.039498608559370041,
5.3825000000000003,-0.038969717919826508,
5.3849999999999998,-0.039714973419904709,
5.3875000000000002,-0.040820837020874023,
5.3899999999999997,-0.042479634284973145,
5.3925000000000001,-0.044859647750854492,
5.3949999999999996,-0.053898893296718597,
5.3975,-0.062024593353271484,
5.4000000000000004,-0.073491930961608887,
5.4024999999999999,-0.088853836059570312,
5.4050000000000002,-0.13097286224365234,
5.4074999999999998,-0.15614330768585205,
5.4100000000000001,-0.18181860446929932,
5.4124999999999996,-0.20547449588775635,
5.415,-0.23420295119285583,
5.4175000000000004,-0.23239991068840027,
5.4199999999999999,-0.21533112227916718,
5.4225000000000003,-0.18025597929954529,
5.4249999999999998,-0.049715839326381683,
5.4275000000000002,0.045677028596401215,
5.4299999999999997,0.15847525000572205,
5.4325000000000001,0.28461596369743347,
5.4349999999999996,0.55298054218292236,
5.4375,0.6804194450378418,
5.4400000000000004,0.79276084899902344,
5.4424999999999999,0.88238400220870972,
5.4450000000000003,0.96938669681549072,
5.4474999999999998,0.95974647998809814,
5.4500000000000002,0.91406941413879395,
5.4524999999999997,0.83519244194030762,
5.4550000000000001,0.60067695379257202,
5.4574999999999996,0.46068888902664185,
5.46,0.31735917925834656,
5.4625000000000004,0.17934243381023407,
5.4649999999999999,-0.052192013710737228,
5.4675000000000002,-0.13599734008312225,
5.4699999999999998,-0.19571404159069061,
5.4725000000000001,-0.23194313049316406,
5.4749999999999996,-0.24494907259941101,
5.4775,-0.22999584674835205,
5.4800000000000004,-0.20684480667114258,
5.4824999999999999,-0.17982324957847595,
5.4850000000000003,-0.12722253799438477,
5.4874999999999998,-0.10568221658468246,
5.4900000000000002,-0.08844514936208725,
5.4924999999999997,-0.075319014489650726,
5.4950000000000001,-0.058706998825073242,
5.4974999999999996,-0.053466163575649261,
5.5,-0.049138866364955902,
5.5025000000000004,-0.045244298875331879,
5.5049999999999999,-0.037695568054914474,
5.5075000000000003,-0.034113526344299316,
5.5099999999999998,-0.030916135758161545,
5.5125000000000002,-0.028367837890982628,
5.5149999999999997,-0.026035904884338379,
5.5175000000000001,-0.026420554146170616,
5.5199999999999996,-0.0276947021484375,
5.5225,-0.029593905434012413,
5.5250000000000004,-0.033897161483764648,
5.5274999999999999,-0.03555595874786377,
5.5300000000000002,-0.036541622132062912,
5.5324999999999998,-0.03675798699259758,
5.5350000000000001,-0.035099189728498459,
5.5374999999999996,-0.033608675003051758,
5.54,-0.032021999359130859,
5.5425000000000004,-0.030459364876151085,
5.5449999999999999,-0.027814906090497971,
5.5475000000000003,-0.026564797386527061,
5.5499999999999998,-0.025170445442199707,
5.5525000000000002,-0.023415487259626389,
5.5549999999999997,-0.018415054306387901,
5.5575000000000001,-0.015001296997070312,
5.5599999999999996,-0.010986527428030968,
5.5625,-0.0064188241958618164,
5.5650000000000004,0.0042311353608965874,
5.5674999999999999,0.01028935145586729,
5.5700000000000003,0.016732215881347656,
5.5724999999999998,0.02353568933904171,
5.5750000000000002,0.0376715287566185,
5.5774999999999997,0.044595204293727875,
5.5800000000000001,0.051086150109767914,
5.5824999999999996,0.056903958320617676,
5.585,0.06183227151632309,
5.5875000000000004,0.068539582192897797,
5.5899999999999999,0.070366665720939636,
5.5925000000000002,0.07135232537984848,
5.5949999999999998,0.071977376937866211,
5.5975000000000001,0.072265863418579102,
5.5999999999999996,0.073035165667533875,
5.6025,0.074573755264282227,
5.6050000000000004,0.077146098017692566,
5.6074999999999999,0.085896849632263184,
5.6100000000000003,0.092003151774406433,
5.6124999999999998,0.098998948931694031,
5.6150000000000002,0.1145050972700119,
5.6174999999999997,0.1223423108458519,
5.6200000000000001,0.12986700236797333,
5.6224999999999996,0.1368868350982666,
5.625,0.14921963214874268,
5.6275000000000004,0.15458068251609802,
5.6299999999999999,0.15946090221405029,
5.6325000000000003,0.1639324426651001,
5.6349999999999998,0.1715773344039917,
5.6375000000000002,0.17453432083129883,
5.6399999999999997,0.1767941415309906,
5.6425000000000001,0.17826060950756073,
5.6449999999999996,0.1785731315612793,
5.6475,0.17746727168560028,
5.6500000000000004,0.17556807398796082,
5.6524999999999999,0.17299573123455048,
5.6550000000000002,0.16614417731761932,
5.6574999999999998,0.16198515892028809,
5.6600000000000001,0.15744149684906006,
5.6624999999999996,0.15256127715110779,
5.665,0.14200747013092041,
5.6675000000000004,0.13640603423118591,
5.6699999999999999,0.13049206137657166,
5.6725000000000003,0.12412130832672119,
5.6749999999999998,0.10924021899700165,
5.6775000000000002,0.10017693042755127,
5.6799999999999997,0.089791417121887207,
5.6825000000000001,0.077963471412658691,
5.6849999999999996,0.050485134124755859,
5.6875,0.03555595874786377,
5.6900000000000004,0.020530622452497482,
5.6924999999999999,0.0060582160949707031,
5.6950000000000003,-0.018823742866516113,
5.6974999999999998,-0.028295716270804405,
5.7000000000000002,-0.035435758531093597,
5.7024999999999997,-0.04029194638133049,
5.7050000000000001,-0.044571161270141602,
5.7074999999999996,-0.04507601261138916,
5.71,-0.045436620712280273,
5.7125000000000004,-0.046278040856122971,
5.7149999999999999,-0.051494836807250977,
5.7175000000000002,-0.056278906762599945,
5.7199999999999998,-0.062240958213806152,
5.7225000000000001,-0.068924233317375183,
5.7249999999999996,-0.08166571706533432,
5.7275,-0.086305543780326843,
5.7300000000000004,-0.08919040858745575,
5.7324999999999999,-0.090127989649772644,
5.7350000000000003,-0.089310608804225922,
5.7374999999999998,-0.084310173988342285,
5.7400000000000002,-0.081449352204799652,
5.7424999999999997,-0.0791655033826828,
5.7450000000000001,-0.077578827738761902,
5.7474999999999996,-0.078251957893371582,
5.75,-0.079526111483573914,
5.7525000000000004,-0.080872379243373871,
5.7549999999999999,-0.08200228214263916,
5.7575000000000003,-0.081257030367851257,
5.7599999999999998,-0.07955014705657959,
5.7625000000000002,-0.077218219637870789,
5.7649999999999997,-0.072386071085929871,
5.7675000000000001,-0.070895552635192871,
5.7699999999999996,-0.070558987557888031,
5.7725,-0.071616768836975098,
5.7750000000000004,-0.077458620071411133,
5.7774999999999999,-0.081473395228385925,
5.7800000000000002,-0.085391998291015625,
5.7824999999999998,-0.088565349578857422,
5.7850000000000001,-0.090272232890129089,
5.7874999999999996,-0.088156662881374359,
5.79,-0.084214016795158386,
5.7925000000000004,-0.078828930854797363,
5.7949999999999999,-0.066616341471672058,
5.7975000000000003,-0.061495702713727951,
5.7999999999999998,-0.057937704026699066,
5.8025000000000002,-0.05642315000295639,
5.8049999999999997,-0.059620540589094162,
5.8075000000000001,-0.063611268997192383,
5.8099999999999996,-0.068347260355949402,
5.8125,-0.073131322860717773,
5.8150000000000004,-0.077242255210876465,
5.8174999999999999,-0.081737838685512543,
5.8200000000000003,-0.081761881709098816,
5.8224999999999998,-0.080559849739074707,
5.8250000000000002,-0.076040230691432953,
5.8274999999999997,-0.073780417442321777,
5.8300000000000001,-0.072145663201808929,
5.8324999999999996,-0.071520611643791199,
5.835,-0.073660217225551605,
5.8375000000000004,-0.076136395335197449,
5.8399999999999999,-0.079021260142326355,
5.8425000000000002,-0.081761881709098816,
5.8449999999999998,-0.084526538848876953,
5.8475000000000001,-0.083637043833732605,
5.8499999999999996,-0.081040665507316589,
5.8525,-0.076857611536979675,
5.8550000000000004,-0.065534517168998718,
5.8574999999999999,-0.059716701507568359,
5.8600000000000003,-0.054692231118679047,
5.8624999999999998,-0.051014028489589691,
5.8650000000000002,-0.048802297562360764,
5.8674999999999997,-0.050220690667629242,
5.8700000000000001,-0.05288919061422348,
5.8724999999999996,-0.05630294606089592,
5.875,-0.063370868563652039,
5.8775000000000004,-0.0661114901304245,
5.8799999999999999,-0.067938566207885742,
5.8825000000000003,-0.068804025650024414,
5.8849999999999998,-0.068058773875236511,
5.8875000000000002,-0.066928863525390625,
5.8899999999999997,-0.065798960626125336,
5.8925000000000001,-0.064981579780578613,
5.8949999999999996,-0.065462395548820496,
5.8975,-0.06707310676574707,
5.9000000000000004,-0.069501206278800964,
5.9024999999999999,-0.072554349899291992,
5.9050000000000002,-0.079021260142326355,
5.9074999999999998,-0.081569552421569824,
5.9100000000000001,-0.083156228065490723,
5.9124999999999996,-0.083540879189968109,
5.915,-0.080439649522304535,
5.9175000000000004,-0.077290341258049011,
5.9199999999999999,-0.073491930961608887,
5.9225000000000003,-0.069453120231628418,
5.9249999999999998,-0.065606638789176941,
5.9275000000000002,-0.059909027069807053,
5.9299999999999997,-0.058562755584716797,
5.9325000000000001,-0.058370433747768402,
5.9349999999999996,-0.06103893369436264,
5.9375,-0.063418947160243988,
5.9400000000000004,-0.066015325486660004,
5.9424999999999999,-0.068347260355949402,
5.9450000000000003,-0.070679187774658203,
5.9474999999999998,-0.070030093193054199,
5.9500000000000002,-0.068058773875236511,
5.9524999999999997,-0.064885422587394714,
5.9550000000000001,-0.060822568833827972,
5.9574999999999996,-0.05185544490814209,
5.96,-0.04798492044210434,
5.9625000000000004,-0.045124094933271408,
5.9649999999999999,-0.043441258370876312,
5.9675000000000002,-0.04478752613067627,
5.9699999999999998,-0.047431986778974533,
5.9725000000000001,-0.051206350326538086,
5.9749999999999996,-0.060726404190063477,
5.9775,-0.065823003649711609,
5.9800000000000004,-0.07060706615447998,
5.9824999999999999,-0.074742041528224945,
5.9850000000000003,-0.07950206845998764,
5.9874999999999998,-0.079622268676757812,
5.9900000000000002,-0.078155800700187683,
5.9924999999999997,-0.075150728225708008,
5.9950000000000001,-0.065967246890068054,
5.9974999999999996,-0.060798525810241699,
6,-0.056014459580183029,93.385215759277344
6.0025000000000004,-0.052192013710737228,
6.0049999999999999,-0.048802297562360764,
6.0075000000000003,-0.049499474465847015,
6.0099999999999998,-0.051663123071193695,
6.0125000000000002,-0.054860513657331467,
6.0149999999999997,-0.062529444694519043,
6.0175000000000001,-0.065847039222717285,
6.0199999999999996,-0.068130895495414734,
6.0225,-0.068948268890380859,
6.0250000000000004,-0.065438352525234222,
6.0274999999999999,-0.06120721623301506,
6.0300000000000002,-0.055798094719648361,
6.0324999999999998,-0.04969179630279541,
6.0350000000000001,-0.038176380097866058,
6.0374999999999996,-0.034089487046003342,
6.04,-0.031709473580121994,
6.0425000000000004,-0.031324826180934906,
6.0449999999999999,-0.035988688468933105,
6.0475000000000003,-0.040243864059448242,
6.0499999999999998,-0.045051973313093185,
6.0525000000000002,-0.049715839326381683,
6.0549999999999997,-0.056495271623134613,
6.0575000000000001,-0.057889621704816818,
6.0599999999999996,-0.057721339166164398,
6.0625,-0.055990420281887054,
6.0650000000000004,-0.048561893403530121,
6.0674999999999999,-0.043272972106933594,
6.0700000000000003,-0.037358999252319336,
6.0724999999999998,-0.03106037899851799,
6.0750000000000002,-0.018487175926566124,
6.0774999999999997,-0.012717446312308311,
6.0800000000000001,-0.0075487298890948296,
6.0824999999999996,-0.0031973919831216335,
6.085,0.0025963783264160156,
6.0875000000000004,0.0038945674896240234,
6.0899999999999999,0.0039666891098022461,
6.0925000000000002,0.0028367838822305202,
6.0949999999999998,0.00048081082059070468,
6.0975000000000001,-0.0077410540543496609,
6.0999999999999996,-0.013294419273734093,
6.1025,-0.019520919770002365,
6.1050000000000004,-0.032671093940734863,
6.1074999999999999,-0.038945674896240234,
6.1100000000000003,-0.044667325913906097,
6.1124999999999998,-0.049667757004499435,
6.1150000000000002,-0.05738477036356926,
6.1174999999999997,-0.060269635170698166,
6.1200000000000001,-0.062601566314697266,
6.1224999999999996,-0.064524814486503601,
6.125,-0.067145228385925293,
6.1275000000000004,-0.06781836599111557,
6.1299999999999999,-0.068010687828063965,
6.1325000000000003,-0.067794322967529297,
6.1349999999999998,-0.066976949572563171,
6.1375000000000002,-0.067169271409511566,
6.1399999999999997,-0.068467460572719574,
6.1425000000000001,-0.071544647216796875,
6.1449999999999996,-0.085343919694423676,
6.1475,-0.096955500543117523,
6.1500000000000004,-0.11190871894359589,
6.1524999999999999,-0.13003528118133545,
6.1550000000000002,-0.17311593890190125,
6.1574999999999998,-0.19578616321086884,
6.1600000000000001,-0.21694183349609375,
6.1624999999999996,-0.23446738719940186,
6.165,-0.24807433784008026,
6.1675000000000004,-0.23857831954956055,
6.1699999999999999,-0.21451374888420105,
6.1725000000000003,-0.17350058257579803,
6.1749999999999998,-0.034834742546081543,
6.1775000000000002,0.062938138842582703,
6.1799999999999997,0.17734706401824951,
6.1825000000000001,0.30456960201263428,
6.1849999999999996,0.4391004741191864,
6.1875,0.70099812746047974,
6.1900000000000004,0.81168079376220703,
6.1924999999999999,0.89779400825500488,
6.1950000000000003,0.96960306167602539,
6.1974999999999998,0.94763004779815674,
6.2000000000000002,0.8867834210395813,
6.2024999999999997,0.7907414436340332,
6.2050000000000001,0.5218961238861084,
6.2074999999999996,0.36815685033798218,
6.21,0.21552345156669617,
6.2125000000000004,0.073732338845729828,
6.2149999999999999,-0.14741659164428711,
6.2175000000000002,-0.2182881087064743,
6.2199999999999998,-0.2616572380065918,
6.2225000000000001,-0.279928058385849,
6.2249999999999996,-0.25925320386886597,
6.2275,-0.23148636519908905,
6.2300000000000004,-0.19948840141296387,
6.2324999999999999,-0.16785106062889099,
6.2350000000000003,-0.1175822839140892,
6.2374999999999998,-0.10161936283111572,
6.2400000000000002,-0.091570422053337097,
6.2424999999999997,-0.086305543780326843,
6.2450000000000001,-0.083829365670681,
6.2474999999999996,-0.083685122430324554,
6.25,-0.082915827631950378,
6.2525000000000004,-0.081064701080322266,
6.2549999999999999,-0.0745977982878685,
6.2575000000000003,-0.070943638682365417,
6.2599999999999998,-0.067794322967529297,
6.2625000000000002,-0.06570279598236084,
6.2649999999999997,-0.065438352525234222,
6.2675000000000001,-0.067025028169155121,
6.2699999999999996,-0.069212719798088074,
6.2725,-0.07135232537984848,
6.2750000000000004,-0.072987079620361328,
6.2774999999999999,-0.07140040397644043,
6.2800000000000002,-0.067794322967529297,
6.2824999999999998,-0.062072675675153732,
6.2850000000000001,-0.045340459793806076,
6.2874999999999996,-0.035363636910915375,
6.29,-0.025338729843497276,
6.2925000000000004,-0.016083121299743652,
6.2949999999999999,-0.0030050675850361586,
6.2975000000000003,-0.00026444596005603671,
6.2999999999999998,-0.00028848648071289062,
6.3025000000000002,-0.0028608243446797132,
6.3049999999999997,-0.013102094642817974,
6.3075000000000001,-0.018992027267813683,
6.3099999999999996,-0.02416074275970459,
6.3125,-0.027814906090497971,
6.3150000000000004,-0.028512081131339073,
6.3174999999999999,-0.0253627710044384,
6.3200000000000003,-0.020170014351606369,
6.3224999999999998,-0.013510784134268761,
6.3250000000000002,0.0015385946026071906,
6.3274999999999997,0.0086065139621496201,
6.3300000000000001,0.014664730057120323,
6.3324999999999996,0.019400715827941895,
6.335,0.024737715721130371,
6.3375000000000004,0.025771459564566612,
6.3399999999999999,0.026300352066755295,
6.3425000000000002,0.026901364326477051,
6.3449999999999998,0.030627649277448654,
6.3475000000000001,0.034618377685546875,
6.3499999999999996,0.04029194638133049,
6.3525,0.047624312341213226,
6.3550000000000004,0.065847039222717285,
6.3574999999999999,0.075823865830898285,
6.3600000000000003,0.085728570818901062,
6.3624999999999998,0.095104381442070007,
6.3650000000000002,0.11137982457876205,
6.3674999999999997,0.11815925687551498,
6.3700000000000001,0.12416939437389374,
6.3724999999999996,0.12950639426708221,
6.375,0.13864180445671082,
6.3775000000000004,0.14244019985198975,
6.3799999999999999,0.14570972323417664,
6.3825000000000003,0.14830610156059265,
6.3849999999999998,0.15109479427337646,
6.3875000000000002,0.15123903751373291,
6.3899999999999997,0.15056590735912323,
6.3925000000000001,0.1492917537689209,
6.3949999999999996,0.14575779438018799,
6.3975,0.14397880434989929,
6.4000000000000004,0.14248828589916229,
6.4024999999999999,0.14140646159648895,
6.4050000000000002,0.14039675891399384,
6.4074999999999998,0.14003615081310272,
6.4100000000000001,0.13929089903831482,
6.4124999999999996,0.1377282589673996,
6.415,0.13486742973327637,
6.4175000000000004,0.12400110810995102,
6.4199999999999999,0.11582732200622559,
6.4225000000000003,0.10604282468557358,
6.4249999999999998,0.095080338418483734,
6.4275000000000002,0.071640811860561371,
6.4299999999999997,0.060101352632045746,
6.4325000000000001,0.049162905663251877,
6.4349999999999996,0.029185216873884201,
6.4375,0.019809406250715256,
6.4400000000000004,0.010553797706961632,
6.4424999999999999,0.0011058648815378547,
6.4450000000000003,-0.018655460327863693,
6.4474999999999998,-0.02889673039317131,
6.4500000000000002,-0.03908991813659668,
6.4524999999999997,-0.049018662422895432,
6.4550000000000001,-0.067121192812919617,
6.4574999999999996,-0.074958406388759613,
6.46,-0.081930160522460938,
6.4625000000000004,-0.088036462664604187,
6.4649999999999999,-0.097700759768486023,
6.4675000000000002,-0.10133087635040283,
6.4699999999999998,-0.10409554094076157,
6.4725000000000001,-0.1060187816619873,
6.4749999999999996,-0.10724484920501709,
6.4775,-0.10666787624359131,
6.4800000000000004,-0.1054658517241478,
6.4824999999999999,-0.10385513305664062,
6.4850000000000003,-0.10044138133525848,
6.4874999999999998,-0.099191270768642426,
6.4900000000000002,-0.098590254783630371,
6.4924999999999997,-0.09871046245098114,
6.4950000000000001,-0.099648043513298035,
6.4974999999999996,-0.10354261100292206,
6.5,-0.1060187816619873,
6.5025000000000004,-0.10847091674804688,
6.5049999999999999,-0.11210104078054428,
6.5075000000000003,-0.11294245719909668,
6.5099999999999998,-0.11313478648662567,
6.5125000000000002,-0.11272609233856201,
6.5149999999999997,-0.11092305183410645,
6.5175000000000001,-0.10981719195842743,
6.5199999999999996,-0.10863920301198959,
6.5225,-0.10734101384878159,
6.5250000000000004,-0.10392725467681885,
6.5274999999999999,-0.1015472412109375,
6.5300000000000002,-0.09875854104757309,
6.5324999999999998,-0.095657311379909515,
6.5350000000000001,-0.089695259928703308,
6.5374999999999996,-0.087555646896362305,
6.54,-0.086377665400505066,
6.5425000000000004,-0.08628150075674057,
6.5449999999999999,-0.088998079299926758,
6.5475000000000003,-0.091257892549037933,
6.5499999999999998,-0.093637906014919281,
6.5525000000000002,-0.095753476023674011,
6.5549999999999997,-0.098181568086147308,
6.5575000000000001,-0.098373889923095703,
6.5599999999999996,-0.09801328182220459,
6.5625,-0.097268030047416687,
6.5650000000000004,-0.095392867922782898,
6.5674999999999999,-0.094575487077236176,
6.5700000000000003,-0.093998514115810394,
6.5724999999999998,-0.093637906014919281,
6.5750000000000002,-0.093445584177970886,
6.5774999999999997,-0.093469619750976562,
6.5800000000000001,-0.093469619750976562,
6.5824999999999996,-0.09334941953420639,
6.585,-0.092483960092067719,
6.5875000000000004,-0.091738700866699219,
6.5899999999999999,-0.090873241424560547,
6.5925000000000002,-0.090055868029594421,
6.5949999999999998,-0.089262530207633972,
6.5975000000000001,-0.089671216905117035,
6.5999999999999996,-0.090777084231376648,
6.6025,-0.092580124735832214,
6.6050000000000004,-0.097652673721313477,
6.6074999999999999,-0.10032117366790771,
6.6100000000000003,-0.10262906551361084,
6.6124999999999998,-0.10423978418111801,
6.6150000000000002,-0.10450422763824463,
6.6174999999999997,-0.1030377596616745,
6.6200000000000001,-0.10065774619579315,
6.6224999999999996,-0.097652673721313477,
6.625,-0.091017484664916992,
6.6275000000000004,-0.088060498237609863,
6.6299999999999999,-0.085704527795314789,
6.6325000000000003,-0.084093809127807617,
6.6349999999999998,-0.083132192492485046,
6.6375000000000002,-0.083564922213554382,
6.6399999999999997,-0.084310173988342285,
6.6425000000000001,-0.085151597857475281,
6.6449999999999996,-0.08628150075674057,
6.6475,-0.086425743997097015,
6.6500000000000004,-0.086353622376918793,
6.6524999999999999,-0.086209379136562347,
6.6550000000000002,-0.086425743997097015,
6.6574999999999998,-0.08702675998210907,
6.6600000000000001,-0.087940298020839691,
6.6624999999999996,-0.089094243943691254,
6.665,-0.091041527688503265,
6.6675000000000004,-0.091330014169216156,
6.6699999999999999,-0.090969406068325043,
6.6725000000000003,-0.089935660362243652,
6.6749999999999998,-0.086545944213867188,
6.6775000000000002,-0.084766946732997894,
6.6799999999999997,-0.083324514329433441,
6.6825000000000001,-0.08241097629070282,
6.6849999999999996,-0.082362890243530273,
6.6875,-0.082963906228542328,
6.6900000000000004,-0.083661079406738281,
6.6924999999999999,-0.084214016795158386,
6.6950000000000003,-0.084189973771572113,
6.6974999999999998,-0.083613000810146332,
6.7000000000000002,-0.082891784608364105,
6.7024999999999997,-0.082290768623352051,
6.7050000000000001,-0.082603298127651215,
6.7074999999999996,-0.083973608911037445,
6.71,-0.08628150075674057,
6.7125000000000004,-0.089358687400817871,
6.7149999999999999,-0.096618935465812683,
6.7175000000000002,-0.099816322326660156,
6.7199999999999998,-0.10202805697917938,
6.7225000000000001,-0.10284543037414551,
6.7249999999999996,-0.099167227745056152,
6.7275,-0.094839930534362793,
6.7300000000000004,-0.089310608804225922,
6.7324999999999999,-0.083204314112663269,
6.7350000000000003,-0.072241827845573425,
6.7374999999999998,-0.068635746836662292,
6.7400000000000002,-0.066808663308620453,
6.7424999999999997,-0.06678462028503418,
6.7450000000000001,-0.071039795875549316,
6.7474999999999996,-0.074309311807155609,
6.75,-0.077602863311767578,
6.7525000000000004,-0.080415606498718262,
6.7549999999999999,-0.083637043833732605,
6.7575000000000003,-0.083997651934623718,
6.7599999999999998,-0.083733201026916504,
6.7625000000000002,-0.0830841064453125,
6.7649999999999997,-0.081425309181213379,
6.7675000000000001,-0.080656014382839203,
6.7699999999999996,-0.07995884120464325,
6.7725,-0.07921358197927475,
6.7750000000000004,-0.077338419854640961,
6.7774999999999999,-0.076040230691432953,
6.7800000000000002,-0.074453555047512054,
6.7824999999999998,-0.072650514543056488,
6.7850000000000001,-0.068683825433254242,
6.7874999999999996,-0.066856741905212402,
6.79,-0.065390273928642273,
6.7925000000000004,-0.064548850059509277,
6.7949999999999999,-0.065606638789176941,
6.7975000000000003,-0.067794322967529297,
6.7999999999999998,-0.071160003542900085,
6.8025000000000002,-0.075583457946777344,
6.8049999999999997,-0.086233422160148621,
6.8075000000000001,-0.091522336006164551,
6.8099999999999996,-0.096017919480800629,
6.8125,-0.099119149148464203,
6.8150000000000004,-0.099311470985412598,
6.8174999999999999,-0.095705389976501465,
6.8200000000000003,-0.089502930641174316,
6.8224999999999998,-0.080896422266960144,
6.8250000000000002,-0.057985782623291016,
6.8274999999999997,-0.044979851692914963,
6.8300000000000001,-0.032021999359130859,
6.8324999999999996,-0.0200017299503088,
6.835,-0.0020194053649902344,
6.8375000000000004,0.0025963783264160156,
6.8399999999999999,0.0037984054069966078,
6.8425000000000002,0.0015145540237426758,
6.8449999999999998,-0.012284716591238976,
6.8475000000000001,-0.022670229896903038,
6.8499999999999996,-0.034377973526716232,
6.8525,-0.046542488038539886,
6.8550000000000004,-0.06923675537109375,
6.8574999999999999,-0.07846832275390625,
6.8600000000000003,-0.085704527795314789,
6.8624999999999998,-0.090825162827968597,
6.8650000000000002,-0.095152460038661957,
6.8674999999999997,-0.095104381442070007,
6.8700000000000001,-0.094359122216701508,
6.8724999999999996,-0.093469619750976562,
6.875,-0.093373462557792664,
6.8775000000000004,-0.094623565673828125,
6.8799999999999999,-0.096642971038818359,
6.8825000000000003,-0.09904702752828598,
6.8849999999999998,-0.10291755199432373,
6.8875000000000002,-0.10359068959951401,
6.8899999999999997,-0.10332624614238739,
6.8925000000000001,-0.10255694389343262,
6.8949999999999996,-0.10327816009521484,
6.8975,-0.10731697082519531,
6.9000000000000004,-0.11551479995250702,
6.9024999999999999,-0.12876114249229431,
6.9050000000000002,-0.17090420424938202,
6.9074999999999998,-0.19802193343639374,
6.9100000000000001,-0.22658209502696991,
6.9124999999999996,-0.25367578864097595,
6.915,-0.2893519401550293,
6.9175000000000004,-0.29050588607788086,
6.9199999999999999,-0.27593731880187988,
6.9225000000000003,-0.24290561676025391,
6.9249999999999998,-0.11577924340963364,
6.9275000000000002,-0.022069215774536133,
6.9299999999999997,0.088901922106742859,
6.9325000000000001,0.2129751443862915,
6.9349999999999996,0.47667583823204041,
6.9375,0.60173475742340088,
6.9400000000000004,0.71174424886703491,
6.9424999999999999,0.79915565252304077,
6.9450000000000003,0.88204741477966309,
6.9474999999999998,0.87041181325912476,
6.9500000000000002,0.82276344299316406,
6.9524999999999997,0.74203532934188843,
6.9550000000000001,0.50509178638458252,
6.9574999999999996,0.36519986391067505,
6.96,0.22333662211894989,
6.9625000000000004,0.088373027741909027,
6.9649999999999999,-0.13200661540031433,
6.9675000000000002,-0.20821511745452881,
6.9699999999999998,-0.25966188311576843,
6.9725000000000001,-0.28764507174491882,
6.9749999999999996,-0.28702002763748169,
6.9775,-0.26773950457572937,
6.9800000000000004,-0.24230460822582245,
6.9824999999999999,-0.21492242813110352,
6.9850000000000003,-0.16636054217815399,
6.9874999999999998,-0.14833013713359833,
6.9900000000000002,-0.13496360182762146,
6.9924999999999997,-0.12568394839763641,
6.9950000000000001,-0.11549075692892075,
6.9974999999999996,-0.11243760585784912,
7,-0.10957678407430649,88.888885498046875
7.0025000000000004,-0.10628323256969452,
7.0049999999999999,-0.097316108644008636,
7.0075000000000003,-0.091738700866699219,
7.0099999999999998,-0.085728570818901062,
7.0125000000000002,-0.079670354723930359,
7.0149999999999997,-0.06923675537109375,
7.0175000000000001,-0.065558552742004395,
7.0199999999999996,-0.06320258229970932,
7.0225,-0.062192879617214203,
7.0250000000000004,-0.063298746943473816,
7.0274999999999999,-0.064717136323451996,
7.0300000000000002,-0.066135525703430176,
7.0324999999999998,-0.067145228385925293,
7.0350000000000001,-0.066928863525390625,
7.0374999999999996,-0.065534517168998718,
7.04,-0.063418947160243988,
7.0425000000000004,-0.060798525810241699,
7.0449999999999999,-0.05522112175822258,
7.0475000000000003,-0.052793025970458984,
7.0499999999999998,-0.050821702927350998,
7.0525000000000002,-0.049379270523786545,
7.0549999999999997,-0.047696433961391449,
7.0575000000000001,-0.047095417976379395,
7.0599999999999996,-0.046278040856122971,
7.0625,-0.045027934014797211,
7.0650000000000004,-0.040436189621686935,
7.0674999999999999,-0.037022434175014496,
7.0700000000000003,-0.033031702041625977,
7.0724999999999998,-0.028632283210754395,
7.0750000000000002,-0.01983344554901123,
7.0774999999999997,-0.01584271714091301,
7.0800000000000001,-0.012188553810119629,
7.0824999999999996,-0.008822878822684288,
7.085,-0.002043446060270071,
7.0875000000000004,0.0018751621246337891,
7.0899999999999999,0.0063947839662432671,
7.0925000000000002,0.011611580848693848,
7.0949999999999998,0.023631852120161057,
7.0975000000000001,0.030050676316022873,
7.0999999999999996,0.036373339593410492,
7.1025,0.042431555688381195,
7.1050000000000004,0.053345959633588791,
7.1074999999999999,0.058274269104003906,
7.1100000000000003,0.062962174415588379,
7.1124999999999998,0.067602001130580902,
7.1150000000000002,0.077025890350341797,
7.1174999999999997,0.081906124949455261,
7.1200000000000001,0.086930595338344574,
7.1224999999999996,0.092027187347412109,
7.125,0.1023886650800705,
7.1275000000000004,0.10755737870931625,
7.1299999999999999,0.11262993514537811,
7.1325000000000003,0.11753420531749725,
7.1349999999999998,0.12638112902641296,
7.1375000000000002,0.13003528118133545,
7.1399999999999997,0.13301631808280945,
7.1425000000000001,0.13525208830833435,
7.1449999999999996,0.13743977248668671,
7.1475,0.13748785853385925,
7.1500000000000004,0.13695895671844482,
7.1524999999999999,0.13597330451011658,
7.1550000000000002,0.13263165950775146,
7.1574999999999998,0.13025164604187012,
7.1600000000000001,0.12727062404155731,
7.1624999999999996,0.12354433536529541,
7.165,0.11318286508321762,
7.1675000000000004,0.1062111109495163,
7.1699999999999999,0.09796520322561264,
7.1725000000000003,0.088421106338500977,
7.1749999999999998,0.066015325486660004,
7.1775000000000002,0.053658485412597656,
7.1799999999999997,0.041037201881408691,
7.1825000000000001,0.028536122292280197,
7.1849999999999996,0.0052889189682900906,
7.1875,-0.0050485134124755859,
7.1900000000000004,-0.014496445655822754,
7.1924999999999999,-0.023223161697387695,
7.1950000000000003,-0.039570730179548264,
7.1974999999999998,-0.047672390937805176,
7.2000000000000002,-0.055870216339826584,
7.2024999999999997,-0.064164206385612488,
7.2050000000000001,-0.080030962824821472,
7.2074999999999996,-0.086930595338344574,
7.21,-0.09272436797618866,
7.2125000000000004,-0.097171865403652191,
7.2149999999999999,-0.1021001785993576,
7.2175000000000002,-0.10294159501791,
7.2199999999999998,-0.10315795987844467,
7.2225000000000001,-0.1031339168548584,
7.2249999999999996,-0.1036868542432785,
7.2275,-0.10479271411895752,
7.2300000000000004,-0.10657171905040741,
7.2324999999999999,-0.10899981111288071,
7.2350000000000003,-0.11510610580444336,
7.2374999999999998,-0.11825542151927948,
7.2400000000000002,-0.12106816470623016,
7.2424999999999997,-0.12320777028799057,
7.2450000000000001,-0.12438575923442841,
7.2474999999999996,-0.1231837272644043,
7.25,-0.12082775682210922,
7.2525000000000004,-0.11751016229391098,
7.2549999999999999,-0.10938446223735809,
7.2575000000000003,-0.1053696870803833,
7.2599999999999998,-0.10190784931182861,
7.2625000000000002,-0.099311470985412598,
7.2649999999999997,-0.097195908427238464,
7.2675000000000001,-0.097748838365077972,
7.2699999999999996,-0.099287435412406921,
7.2725,-0.101643405854702,
7.2750000000000004,-0.10820647329092026,
7.2774999999999999,-0.11200487613677979,
7.2800000000000002,-0.11589944362640381,
7.2824999999999998,-0.11967381089925766,
7.2850000000000001,-0.12578010559082031,
7.2874999999999996,-0.12770335376262665,
7.29,-0.12864093482494354,
7.2925000000000004,-0.12856881320476532,
7.2949999999999999,-0.12556374073028564,
7.2975000000000003,-0.12291928380727768,
7.2999999999999998,-0.11979401111602783,
7.3025000000000002,-0.11642833799123764,
7.3049999999999997,-0.10981719195842743,
7.3075000000000001,-0.10698040574789047,
7.3099999999999996,-0.10474463552236557,
7.3125,-0.10320603847503662,
7.3150000000000004,-0.1030377596616745,
7.3174999999999999,-0.10450422763824463,
7.3200000000000003,-0.1069563627243042,
7.3224999999999998,-0.11022587865591049,
7.3250000000000002,-0.11791884899139404,
7.3274999999999997,-0.12152493000030518,
7.3300000000000001,-0.12438575923442841,
7.3324999999999996,-0.12609264254570007,
7.335,-0.12517909705638885,
7.3375000000000004,-0.12246251106262207,
7.3399999999999999,-0.11847178637981415,
7.3425000000000002,-0.11354347318410873,
7.3449999999999998,-0.10265310853719711,
7.3475000000000001,-0.097748838365077972,
7.3499999999999996,-0.093782149255275726,
7.3525,-0.091113649308681488,
7.3550000000000004,-0.090320311486721039,
7.3574999999999999,-0.092003151774406433,
7.3600000000000003,-0.094599530100822449,
7.3624999999999998,-0.097652673721313477,
7.3650000000000002,-0.10294159501791,
7.3674999999999997,-0.10423978418111801,
7.3700000000000001,-0.10428786277770996,
7.3724999999999996,-0.10298967361450195,
7.375,-0.097364187240600586,
7.3775000000000004,-0.093806192278862,
7.3799999999999999,-0.090368390083312988,
7.3825000000000003,-0.087483525276184082,
7.3849999999999998,-0.0845746248960495,
7.3875000000000002,-0.08486311137676239,
7.3899999999999997,-0.086233422160148621,
7.3925000000000001,-0.088517270982265472,
7.3949999999999996,-0.094888016581535339,
7.3975,-0.09830176830291748,
7.4000000000000004,-0.10142704099416733,
7.4024999999999999,-0.10397534072399139,
7.4050000000000002,-0.10645151138305664,
7.4074999999999998,-0.10618706792593002,
7.4100000000000001,-0.10498504340648651,
7.4124999999999996,-0.10296563804149628,
7.415,-0.097700759768486023,
7.4175000000000004,-0.094912052154541016,
7.4199999999999999,-0.092267595231533051,
7.4225000000000003,-0.08986353874206543,
7.4249999999999998,-0.08553624153137207,
7.4275000000000002,-0.083396635949611664,
7.4299999999999997,-0.081112787127494812,
7.4325000000000001,-0.078660652041435242,
7.4349999999999996,-0.073636174201965332,
7.4375,-0.071520611643791199,
7.4400000000000004,-0.070030093193054199,
7.4424999999999999,-0.069525241851806641,
7.4450000000000003,-0.072145663201808929,
7.4474999999999998,-0.075319014489650726,
7.4500000000000002,-0.07950206845998764,
7.4524999999999997,-0.084286138415336609,
7.4550000000000001,-0.093806192278862,
7.4574999999999996,-0.097412273287773132,
7.46,-0.099672079086303711,
7.4625000000000004,-0.10034521669149399,
7.4649999999999999,-0.097003579139709473,
7.4675000000000002,-0.09368598461151123,
7.4699999999999998,-0.090079903602600098,
7.4725000000000001,-0.086810395121574402,
7.4749999999999996,-0.083709165453910828,
7.4775,-0.084478460252285004,
7.4800000000000004,-0.086642108857631683,
7.4824999999999999,-0.089767381548881531,
7.4850000000000003,-0.095825597643852234,
7.4874999999999998,-0.097243987023830414,
7.4900000000000002,-0.096739135682582855,
7.4924999999999997,-0.094046592712402344,
7.4950000000000001,-0.08274754136800766,
7.4974999999999996,-0.075150728225708008,
7.5,-0.067313514649868011,
7.5025000000000004,-0.06000518798828125,
7.5049999999999999,-0.049643717706203461,
7.5075000000000003,-0.047480069100856781,
7.5099999999999998,-0.04752814769744873,
7.5125000000000002,-0.04969179630279541,
7.5149999999999997,-0.059163771569728851,
7.5175000000000001,-0.065534517168998718,
7.5199999999999996,-0.072265863418579102,
7.5225,-0.078732773661613464,
7.5250000000000004,-0.088589392602443695,
7.5274999999999999,-0.091017484664916992,
7.5300000000000002,-0.091330014169216156,
7.5324999999999998,-0.089382730424404144,
7.5350000000000001,-0.079093381762504578,
7.5374999999999996,-0.071328282356262207,
7.54,-0.062337122857570648,
7.5425000000000004,-0.052720904350280762,
7.5449999999999999,-0.033584635704755783,
7.5475000000000003,-0.025194486603140831,
7.5499999999999998,-0.018222730606794357,
7.5525000000000002,-0.013150176033377647,
7.5549999999999997,-0.010121067985892296,
7.5575000000000001,-0.012573203071951866,
7.5599999999999996,-0.017717879265546799,
7.5625,-0.025338729843497276,
7.5650000000000004,-0.046278040856122971,
7.5674999999999999,-0.058322351425886154,
7.5700000000000003,-0.070414744317531586,
7.5724999999999998,-0.081737838685512543,
7.5750000000000002,-0.099287435412406921,
7.5774999999999997,-0.10445614904165268,
7.5800000000000001,-0.10683616250753403,
7.5824999999999996,-0.10640343278646469,
7.585,-0.098181568086147308,
7.5875000000000004,-0.091378092765808105,
7.5899999999999999,-0.083661079406738281,
7.5925000000000002,-0.075727701187133789,
7.5949999999999998,-0.061928432434797287,
7.5975000000000001,-0.057192444801330566,
7.5999999999999996,-0.054451823234558105,
7.6025,-0.054091215133666992,
7.6050000000000004,-0.06137549877166748,
7.6074999999999999,-0.069621406495571136,
7.6100000000000003,-0.081353187561035156,
7.6124999999999998,-0.096811257302761078,
7.6150000000000002,-0.13941109180450439,
7.6174999999999997,-0.16590377688407898,
7.6200000000000001,-0.19472837448120117,
7.6224999999999996,-0.22420208156108856,
7.625,-0.27540844678878784,
7.6275000000000004,-0.29096266627311707,
7.6299999999999999,-0.29516977071762085,
7.6325000000000003,-0.28461596369743347,
7.6349999999999998,-0.20807087421417236,
7.6375000000000002,-0.13890624046325684,
7.6399999999999997,-0.049283109605312347,
7.6425000000000001,0.05863487720489502,
7.6449999999999996,0.31214237213134766,
7.6475,0.44520676136016846,
7.6500000000000004,0.57228505611419678,
7.6524999999999999,0.68515539169311523,
7.6550000000000002,0.83814942836761475,
7.6574999999999998,0.86680573225021362,
7.6600000000000001,0.85952144861221313,
7.6624999999999996,0.81646484136581421,
7.665,0.63745898008346558,
7.6675000000000004,0.51415503025054932,
7.6699999999999999,0.37935972213745117,
7.6725000000000003,0.24194400012493134,
