Data Set 1:Time(s),Data Set 1:EKG(mV),Data Set 1:Heart Rate(bpm)
0,0.0079814596101641655,0
0.0025000000000000001,0.0066832704469561577,
0.0050000000000000001,0.0054331622086465359,
0.0074999999999999997,0.0041109323501586914,
0.01,0.0026204190216958523,
0.012500000000000001,0.00069717568112537265,
0.014999999999999999,-0.004832148551940918,
0.017500000000000002,-0.012380878441035748,
0.02,-0.016395648941397667,
0.022499999999999999,-0.020121932029724121,
0.025000000000000001,-0.025338729843497276,
0.0275,-0.026372473686933517,
0.029999999999999999,-0.026252269744873047,
0.032500000000000001,-0.025050243362784386,
0.035000000000000003,-0.020242135971784592,
0.037499999999999999,-0.017140906304121017,
0.040000000000000001,-0.01384735107421875,
0.042500000000000003,-0.010481676086783409,
0.044999999999999998,-0.0036782026290893555,
0.047500000000000001,-9.6162162662949413e-05,
0.050000000000000003,0.0037503242492675781,
0.052499999999999998,0.0079333782196044922,
0.055,0.016996663063764572,
0.057500000000000002,0.021468203514814377,
0.059999999999999998,0.025458931922912598,
0.0625,0.028584202751517296,
0.065000000000000002,0.030435323715209961,
0.067500000000000004,0.029281377792358398,
0.070000000000000007,0.026132067665457726,
0.072499999999999995,0.021516283974051476,
0.074999999999999997,0.0096642971038818359,
0.077499999999999999,0.0037262837868183851,
0.080000000000000002,-0.0013222297420725226,
0.082500000000000004,-0.0048802299425005913,
0.085000000000000006,-0.0061062974855303764,
0.087499999999999994,-0.0037022433243691921,
0.089999999999999997,0.00033656758023425937,
0.092499999999999999,0.0054091215133666992,
0.095000000000000001,0.015626352280378342,
0.097500000000000003,0.019304554909467697,
0.10000000000000001,0.021347999572753906,
0.10249999999999999,0.021492242813110352,
0.105,0.016852419823408127,
0.1075,0.013078054413199425,
0.11,0.0092075271531939507,
0.1125,0.0059620542451739311,
0.115,0.0033175945281982422,
0.11749999999999999,0.0042070946656167507,
0.12,0.0062986216507852077,
0.1225,0.0091113653033971786,
0.125,0.01430412195622921,
0.1275,0.015530189499258995,
0.13,0.015313824638724327,
0.13250000000000001,0.013558864593505859,
0.13500000000000001,0.0065390272065997124,
0.13750000000000001,0.0021876893006265163,
0.14000000000000001,-0.0019232432823628187,
0.14249999999999999,-0.0052889189682900906,
0.14499999999999999,-0.0082699460908770561,
0.14749999999999999,-0.0076689324341714382,
0.14999999999999999,-0.0057937703095376492,
0.1525,-0.0029089055024087429,
0.155,0.0043272972106933594,
0.1575,0.0080054998397827148,
0.16,0.011299054138362408,
0.16250000000000001,0.014015635475516319,
0.16500000000000001,0.01601099967956543,
0.16750000000000001,0.017645757645368576,
0.17000000000000001,0.017285149544477463,
0.17249999999999999,0.016251405701041222,
0.17499999999999999,0.014592608436942101,
0.17749999999999999,0.010097026824951172,
0.17999999999999999,0.0076929731294512749,
0.1825,0.0055774054490029812,
0.185,0.0039426488801836967,
0.1875,0.0031973919831216335,
0.19,0.0042551755905151367,
0.1925,0.0061543784104287624,
0.19500000000000001,0.0086545944213867188,
0.19750000000000001,0.013799270614981651,
0.20000000000000001,0.015554229728877544,
0.20250000000000001,0.016251405701041222,
0.20499999999999999,0.015722513198852539,
0.20749999999999999,0.011539459228515625,
0.20999999999999999,0.0087747974321246147,
0.21249999999999999,0.0063707432709634304,
0.215,0.0050965948030352592,
0.2175,0.0080295410007238388,
0.22,0.012669364921748638,
0.2225,0.019112229347229004,
0.22500000000000001,0.026684999465942383,
0.22750000000000001,0.041397809982299805,
0.23000000000000001,0.046422284096479416,
0.23250000000000001,0.048802297562360764,
0.23499999999999999,0.048032999038696289,
0.23749999999999999,0.037431120872497559,
0.23999999999999999,0.028800567612051964,
0.24249999999999999,0.019256472587585449,
0.245,0.0100008649751544,
0.2475,-0.0036060810089111328,
0.25,-0.0065390272065997124,
0.2525,-0.0065149865113198757,
0.255,-0.0038705270271748304,
0.25750000000000001,0.0069717569276690483,
0.26000000000000001,0.013462702743709087,
0.26250000000000001,0.01954495906829834,
0.26500000000000001,0.024497311562299728,
0.26750000000000002,0.029545824974775314,
0.27000000000000002,0.029593905434012413,
0.27250000000000002,0.028319757431745529,
0.27500000000000002,0.026204189285635948,
0.27750000000000002,0.021780729293823242,
0.28000000000000003,0.020410418510437012,
0.28249999999999997,0.020073851570487022,
0.28499999999999998,0.020891230553388596,
0.28749999999999998,0.025458931922912598,
0.28999999999999998,0.028704404830932617,
0.29249999999999998,0.032070081681013107,
0.29499999999999998,0.035195350646972656,
0.29749999999999999,0.039618812501430511,
0.29999999999999999,0.040628515183925629,
0.30249999999999999,0.040965080261230469,
0.30499999999999999,0.040820837020874023,
0.3075,0.040580432862043381,
0.31,0.041253566741943359,
0.3125,0.042888324707746506,
0.315,0.045701067894697189,
0.3175,0.054740309715270996,
0.32000000000000001,0.060510039329528809,
0.32250000000000001,0.066568255424499512,
0.32500000000000001,0.072362028062343597,
0.32750000000000001,0.080704092979431152,
0.33000000000000002,0.082146525382995605,
0.33250000000000002,0.081257030367851257,
0.33500000000000002,0.077747106552124023,
0.33750000000000002,0.063130460679531097,
0.34000000000000002,0.052552621811628342,
0.34250000000000003,0.040532350540161133,
0.34499999999999997,0.0276947021484375,
0.34749999999999998,0.0029569864273071289,
0.34999999999999998,-0.0073323650285601616,
0.35249999999999998,-0.015265743248164654,
0.35499999999999998,-0.02029021643102169,
0.35749999999999998,-0.020410418510437012,
0.35999999999999999,-0.015578269958496094,
0.36249999999999999,-0.0079574193805456161,
0.36499999999999999,0.0018030405044555664,
0.36749999999999999,0.024064581841230392,
0.37,0.034450095146894455,
0.3725,0.04291236400604248,
0.375,0.048417650163173676,
0.3775,0.047287743538618088,
0.38,0.039594769477844238,
0.38250000000000001,0.026973485946655273,
0.38500000000000001,0.0095921754837036133,
0.38750000000000001,-0.036950312554836273,
0.39000000000000001,-0.064188241958618164,
0.39250000000000002,-0.092411838471889496,
0.39500000000000002,-0.120106540620327,
0.39750000000000002,-0.16698560118675232,
0.40000000000000002,-0.18244366347789764,
0.40250000000000002,-0.18989622592926025,
0.40500000000000003,-0.18729984760284424,
0.40749999999999997,-0.14421920478343964,
0.40999999999999998,-0.10044138133525848,
0.41249999999999998,-0.040508311241865158,
0.41499999999999998,0.035628080368041992,
0.41749999999999998,0.23117384314537048,
0.41999999999999998,0.34469327330589294,
0.42249999999999999,0.46254000067710876,
0.42499999999999999,0.57875198125839233,
0.42749999999999999,0.77908182144165039,
0.42999999999999999,0.8498571515083313,
0.4325,0.89351475238800049,
0.435,0.90637648105621338,
0.4375,0.83603382110595703,
0.44,0.756988525390625,
0.4425,0.65517687797546387,
0.44500000000000001,0.53764265775680542,
0.44750000000000001,0.28733253479003906,
0.45000000000000001,0.17013490200042725,
0.45250000000000001,0.066904827952384949,
0.45500000000000002,-0.017910202965140343,
0.45750000000000002,-0.12469828128814697,
0.46000000000000002,-0.14775316417217255,
0.46250000000000002,-0.15390753746032715,
0.46500000000000002,-0.1469598263502121,
0.46750000000000003,-0.11029800027608871,
0.46999999999999997,-0.088132619857788086,
0.47249999999999998,-0.067289471626281738,
0.47499999999999998,-0.04952351376414299,
0.47749999999999998,-0.025819540023803711,
0.47999999999999998,-0.019352635368704796,
0.48249999999999998,-0.015409986488521099,
0.48499999999999999,-0.012957851402461529,
0.48749999999999999,-0.0089430809020996094,
0.48999999999999999,-0.0062745809555053711,
0.49249999999999999,-0.0029329459648579359,
0.495,0.0008895000210031867,
0.4975,0.0085103511810302734,
0.5,0.011515418998897076,
0.50249999999999995,0.013630986213684082,
0.505,0.014736851677298546,
0.50749999999999995,0.014688770286738873,
0.51000000000000001,0.014111797325313091,
0.51249999999999996,0.013727148994803429,
0.51500000000000001,0.013775229454040527,
0.51749999999999996,0.015986960381269455,
0.52000000000000002,0.018006365746259689,
0.52249999999999996,0.020386379212141037,
0.52500000000000002,0.022790431976318359,
0.52749999999999997,0.026516716927289963,
0.53000000000000003,0.027550458908081055,
0.53249999999999997,0.028007229790091515,
0.53500000000000003,0.028103392571210861,
0.53749999999999998,0.028367837890982628,
0.54000000000000004,0.02906501293182373,
0.54249999999999998,0.030387243255972862,
0.54500000000000004,0.032334528863430023,
0.54749999999999999,0.03476262092590332,
0.55000000000000004,0.039955377578735352,
0.55249999999999999,0.042070947587490082,
0.55500000000000005,0.043561458587646484,
0.5575,0.044595204293727875,
0.56000000000000005,0.044523082673549652,
0.5625,0.044571161270141602,
0.56499999999999995,0.045148134231567383,
0.5675,0.049475431442260742,
0.56999999999999995,0.053514242172241211,
0.57250000000000001,0.058731041848659515,
0.57499999999999996,0.064717136323451996,
0.57750000000000001,0.076881647109985352,
0.57999999999999996,0.081954203546047211,
0.58250000000000002,0.085776649415493011,
0.58499999999999996,0.08810858428478241,
0.58750000000000002,0.088829800486564636,
0.58999999999999997,0.087964341044425964,
0.59250000000000003,0.087002716958522797,
0.59499999999999997,0.086569987237453461,
0.59750000000000003,0.087146960198879242,
0.59999999999999998,0.092532038688659668,
0.60250000000000004,0.097460351884365082,
0.60499999999999998,0.10363876819610596,
0.60750000000000004,0.11073072999715805,
0.60999999999999999,0.12618879973888397,
0.61250000000000004,0.13392984867095947,
0.61499999999999999,0.14138242602348328,
0.61750000000000005,0.14849841594696045,
0.62,0.16157647967338562,
0.62250000000000005,0.16753852367401123,
0.625,0.1730678528547287,
0.62749999999999995,0.17806828022003174,
0.63,0.18592953681945801,
0.63249999999999995,0.18854996562004089,
0.63500000000000001,0.19025683403015137,
0.63749999999999996,0.19114634394645691,
0.64000000000000001,0.19136270880699158,
0.64249999999999996,0.19141077995300293,
0.64500000000000002,0.19196371734142303,
0.64749999999999996,0.19340614974498749,
0.65000000000000002,0.19951245188713074,
0.65249999999999997,0.20400802791118622,
0.65500000000000003,0.20900845527648926,
0.65749999999999997,0.21386465430259705,
0.66000000000000003,0.22023539245128632,
0.66249999999999998,0.22035560011863708,
0.66500000000000004,0.21771113574504852,
0.66749999999999998,0.21206161379814148,
0.67000000000000004,0.19232432544231415,
0.67249999999999999,0.17919819056987762,
0.67500000000000004,0.16491810977458954,
0.67749999999999999,0.15034954249858856,
0.68000000000000005,0.12352029979228973,
0.6825,0.11234144866466522,
0.68500000000000005,0.10296563804149628,
0.6875,0.095296703279018402,
0.68999999999999995,0.083468757569789886,
0.6925,0.078227922320365906,
0.69499999999999995,0.072650514543056488,
0.69750000000000001,0.066375933587551117,
0.69999999999999996,0.050869785249233246,
0.70250000000000001,0.041782461106777191,
0.70499999999999996,0.032262407243251801,
0.70750000000000002,0.022742351517081261,
0.70999999999999996,0.0058658919297158718,
0.71250000000000002,-0.00057697296142578125,
0.71499999999999997,-0.0053129596635699272,
0.71750000000000003,-0.0082218647003173828,
0.71999999999999997,-0.0088709592819213867,
0.72250000000000003,-0.0071640810929238796,
0.72499999999999998,-0.0046638650819659233,
0.72750000000000004,-0.0018511216621845961,
0.72999999999999998,0.0028608243446797132,
0.73250000000000004,0.0039666891098022461,
0.73499999999999999,0.0038224458694458008,
0.73750000000000004,0.002307891845703125,
0.73999999999999999,-0.0045917434617877007,
0.74250000000000005,-0.0095200538635253906,
0.745,-0.01490513514727354,
0.74750000000000005,-0.02029021643102169,
0.75,-0.029040973633527756,
0.75249999999999995,-0.031565230339765549,
0.755,-0.032550893723964691,
0.75749999999999995,-0.031901799142360687,
0.76000000000000001,-0.026516716927289963,
0.76249999999999996,-0.022501945495605469,
0.76500000000000001,-0.018246769905090332,
0.76749999999999996,-0.014232000336050987,
0.77000000000000002,-0.0084141893312335014,
0.77249999999999996,-0.007043878547847271,
0.77500000000000002,-0.006707310676574707,
0.77749999999999997,-0.0072121620178222656,
0.78000000000000003,-0.0096162166446447372,
0.78249999999999997,-0.010746121406555176,
0.78500000000000003,-0.01139521598815918,
0.78749999999999998,-0.01137117575854063,
0.79000000000000004,-0.00891904067248106,
0.79249999999999998,-0.0066832704469561577,
0.79500000000000004,-0.0040628514252603054,
0.79749999999999999,-0.0014183919411152601,
0.80000000000000004,0.0026444594841450453,
0.80249999999999999,0.0033897161483764648,
0.80500000000000005,0.0029569864273071289,
0.8075,0.0012501081218943,
0.81000000000000005,-0.0058178110048174858,
0.8125,-0.010818243026733398,
0.81499999999999995,-0.016371607780456543,
0.8175,-0.022141337394714355,
0.81999999999999995,-0.032743215560913086,
0.82250000000000001,-0.03692626953125,
0.82499999999999996,-0.040051542222499847,
0.82750000000000001,-0.041998825967311859,
0.82999999999999996,-0.042215190827846527,
0.83250000000000002,-0.040676593780517578,
0.83499999999999996,-0.038200419396162033,
0.83750000000000002,-0.034954946488142014,
0.83999999999999997,-0.026901364326477051,
0.84250000000000003,-0.02245386503636837,
0.84499999999999997,-0.017958283424377441,
0.84750000000000003,-0.013630986213684082,
0.84999999999999998,-0.0060582160949707031,
0.85250000000000004,-0.0031733512878417969,
0.85499999999999998,-0.00098566222004592419,
0.85750000000000004,0.00043272972106933594,
0.85999999999999999,0.0013462703209370375,
0.86250000000000004,0.0011779865017160773,
0.86499999999999999,0.00091354054166004062,
0.86750000000000005,0.00081737840082496405,
0.87,0.002043446060270071,
0.87250000000000005,0.0035339593887329102,
0.875,0.0055052838288247585,
0.87749999999999995,0.0077170133590698242,
0.88,0.011202892288565636,
0.88249999999999995,0.011587540619075298,
0.88500000000000001,0.010529756546020508,
0.88749999999999996,0.0078852977603673935,
0.89000000000000001,-0.0019953649025410414,
0.89249999999999996,-0.0084141893312335014,
0.89500000000000002,-0.01492917537689209,
0.89749999999999996,-0.02074698731303215,
0.90000000000000002,-0.027237933129072189,
0.90249999999999997,-0.026925405487418175,
0.90500000000000003,-0.024040540680289268,
0.90749999999999997,-0.018967986106872559,
0.91000000000000003,-0.0050965948030352592,
0.91249999999999998,0.0017549594631418586,
0.91500000000000004,0.0072842836380004883,
0.91749999999999998,0.010746121406555176,
0.92000000000000004,0.01031339168548584,
0.92249999999999999,0.006875594612210989,
0.92500000000000004,0.0022117297630757093,
0.92749999999999999,-0.0027165811043232679,
0.93000000000000005,-0.0094960136339068413,
0.9325,-0.0098806619644165039,
0.93500000000000005,-0.0079093379899859428,
0.9375,-0.0037984054069966078,
0.93999999999999995,0.0083420677110552788,
0.9425,0.014520486816763878,
0.94499999999999995,0.019569000229239464,
0.94750000000000001,0.022814473137259483,
0.94999999999999996,0.022525986656546593,
0.95250000000000001,0.019304554909467697,
0.95499999999999996,0.014688770286738873,
0.95750000000000002,0.0094960136339068413,
0.95999999999999996,0.0044955811463296413,
0.96250000000000002,-0.0022117297630757093,
0.96499999999999997,-0.0031493108253926039,
0.96750000000000003,-0.0024280946236103773,
0.96999999999999997,0.0025723378639668226,
0.97250000000000003,0.0057216486893594265,
0.97499999999999998,0.0084863109514117241,
0.97750000000000004,0.010265311226248741,
0.97999999999999998,0.0096162166446447372,
0.98250000000000004,0.0070679187774658203,
0.98499999999999999,0.0032935540657490492,
0.98750000000000004,-0.0012741487007588148,
0.98999999999999999,-0.010505716316401958,
0.99250000000000005,-0.014087757095694542,
0.995,-0.016395648941397667,
0.99750000000000005,-0.017164945602416992,
1,-0.014015635475516319,0
1.0024999999999999,-0.010481676086783409,
1.0049999999999999,-0.0061062974855303764,
1.0075000000000001,-0.0013462703209370375,
1.01,0.0075968108139932156,
1.0125,0.011034607887268066,
1.0149999999999999,0.013486742973327637,
1.0175000000000001,0.014808973297476768,
1.02,0.014256040565669537,
1.0225,0.012669364921748638,
1.0249999999999999,0.010481676086783409,
1.0275000000000001,0.0079814596101641655,
1.03,0.0054331622086465359,
1.0325,0.0010818243026733398,
1.0349999999999999,-0.00036060810089111328,
1.0375000000000001,-0.0011779865017160773,
1.04,-0.0013462703209370375,
1.0425,0.00014424324035644531,
1.0449999999999999,0.0016587972640991211,
1.0475000000000001,0.0035339593887329102,
1.05,0.0056735677644610405,
1.0525,0.010577837936580181,
1.0549999999999999,0.013150176033377647,
1.0575000000000001,0.015698473900556564,
1.0600000000000001,0.018054446205496788,
1.0625,0.02137204073369503,
1.0649999999999999,0.02182881161570549,
1.0674999999999999,0.02108355425298214,
1.0700000000000001,0.019040107727050781,
1.0725,0.010962486267089844,
1.075,0.0054572029039263725,
1.0774999999999999,-0.00040868920041248202,
1.0800000000000001,-0.0060341758653521538,
1.0825,-0.013727148994803429,
1.085,-0.014712810516357422,
1.0874999999999999,-0.013390581123530865,
1.0900000000000001,-0.0097364187240600586,
1.0925,0.0033175945281982422,
1.095,0.011731783859431744,
1.0974999999999999,0.020554661750793457,
1.1000000000000001,0.029257338494062424,
1.1025,0.044691365212202072,
1.105,0.050965946167707443,
1.1074999999999999,0.056110620498657227,
1.1100000000000001,0.060125391930341721,
1.1125,0.064596936106681824,
1.115,0.064933501183986664,
1.1174999999999999,0.063899755477905273,
1.1200000000000001,0.06137549877166748,
1.1225000000000001,0.052167974412441254,
1.125,0.045917432755231857,
1.1274999999999999,0.039065878838300705,
1.1299999999999999,0.032166242599487305,
1.1325000000000001,0.020218094810843468,
1.135,0.015938878059387207,
1.1375,0.012981891632080078,
1.1399999999999999,0.011250972747802734,
1.1425000000000001,0.0099527835845947266,
1.145,0.009447932243347168,
1.1475,0.0083901491016149521,
1.1499999999999999,0.0064188241958618164,
1.1525000000000001,-0.00057697296142578125,
1.155,-0.0052648782730102539,
1.1575,-0.010217229835689068,
1.1599999999999999,-0.014808973297476768,
1.1625000000000001,-0.020891230553388596,
1.165,-0.021588405594229698,
1.1675,-0.020530622452497482,
1.1699999999999999,-0.017910202965140343,
1.1725000000000001,-0.010241270065307617,
1.175,-0.0068996353074908257,
1.1775,-0.0052648782730102539,
1.1799999999999999,-0.0064428648911416531,
1.1825000000000001,-0.02074698731303215,
1.1850000000000001,-0.034834742546081543,
1.1875,-0.053345959633588791,
1.1899999999999999,-0.075439214706420898,
1.1924999999999999,-0.12366454303264618,
1.1950000000000001,-0.14498850703239441,
1.1975,-0.16049465537071228,
1.2,-0.16698560118675232,
1.2024999999999999,-0.14068524539470673,
1.2050000000000001,-0.10310988128185272,
1.2075,-0.04752814769744873,
1.21,0.025843581184744835,
1.2124999999999999,0.21802365779876709,
1.2150000000000001,0.3290669322013855,
1.2175,0.44275462627410889,
1.22,0.55237948894500732,
1.2224999999999999,0.73145747184753418,
1.2250000000000001,0.78819316625595093,
1.2275,0.81658506393432617,
1.23,0.81420505046844482,
1.2324999999999999,0.71895641088485718,
1.2350000000000001,0.63279509544372559,
1.2375,0.52877169847488403,
1.24,0.41429063677787781,
1.2424999999999999,0.18516024947166443,
1.2450000000000001,0.08445441722869873,
1.2475000000000001,-2.4040540665737353e-05,
1.25,-0.065462395548820496,
1.2524999999999999,-0.13758401572704315,
1.2549999999999999,-0.14780125021934509,
1.2575000000000001,-0.14506062865257263,
1.26,-0.13330480456352234,
1.2625,-0.097508430480957031,
1.2649999999999999,-0.079381868243217468,
1.2675000000000001,-0.063683390617370605,
1.27,-0.051206350326538086,
1.2725,-0.035964649170637131,
1.2749999999999999,-0.032070081681013107,
1.2775000000000001,-0.029593905434012413,
1.28,-0.027766823768615723,
1.2825,-0.023920338600873947,
1.2849999999999999,-0.02137204073369503,
1.2875000000000001,-0.018342932686209679,
1.29,-0.014977256767451763,
1.2925,-0.0081497430801391602,
1.2949999999999999,-0.0051206350326538086,
1.2975000000000001,-0.0025723378639668226,
1.3,-0.00057697296142578125,
1.3025,0.002067486522719264,
1.3049999999999999,0.0029810271225869656,
1.3075000000000001,0.0038945674896240234,
1.3100000000000001,0.0050004324875771999,
1.3125,0.0083901491016149521,
1.3149999999999999,0.010842284187674522,
1.3174999999999999,0.013751189224421978,
1.3200000000000001,0.017020702362060547,
1.3225,0.024088621139526367,
1.325,0.027622580528259277,
1.3274999999999999,0.031108459457755089,
1.3300000000000001,0.03447413444519043,
1.3325,0.040941040962934494,
1.335,0.04399418830871582,
1.3374999999999999,0.046855013817548752,
1.3400000000000001,0.049331188201904297,
1.3425,0.052336256951093674,
1.345,0.052456460893154144,
1.3474999999999999,0.051566958427429199,
1.3500000000000001,0.04969179630279541,
1.3525,0.044042270630598068,
1.355,0.041157405823469162,
1.3574999999999999,0.038873553276062012,
1.3600000000000001,0.037695568054914474,
1.3625,0.039763055741786957,
1.365,0.043104689568281174,
1.3674999999999999,0.047672390937805176,
1.3700000000000001,0.053105555474758148,
1.3725000000000001,0.064500771462917328,
1.375,0.069573327898979187,
1.3774999999999999,0.073828503489494324,
1.3799999999999999,0.077146098017692566,
1.3825000000000001,0.081401273608207703,
1.385,0.08274754136800766,
1.3875,0.083949565887451172,
1.3899999999999999,0.085223719477653503,
1.3925000000000001,0.08878171443939209,
1.395,0.09123384952545166,
1.3975,0.094214878976345062,
1.3999999999999999,0.097796916961669922,
1.4025000000000001,0.10714869201183319,
1.405,0.1131107434630394,
1.4075,0.12013058364391327,
1.4099999999999999,0.12825629115104675,
1.4125000000000001,0.14744064211845398,
1.415,0.15799443423748016,
1.4175,0.16862034797668457,
1.4199999999999999,0.17878949642181396,
1.4225000000000001,0.19571404159069061,
1.425,0.20172417163848877,
1.4275,0.20590722560882568,
1.4299999999999999,0.2084074467420578,
1.4325000000000001,0.20982584357261658,
1.4350000000000001,0.20977775752544403,
1.4375,0.2098979651927948,
1.4399999999999999,0.21052300930023193,
1.4424999999999999,0.21335980296134949,
1.4450000000000001,0.21497051417827606,
1.4475,0.2159561812877655,
1.45,0.21561960875988007,
1.4524999999999999,0.2085036039352417,
1.4550000000000001,0.20105104148387909,
1.4575,0.19100210070610046,
1.46,0.17886161804199219,
1.4624999999999999,0.15147945284843445,
1.4650000000000001,0.13816098868846893,
1.4675,0.12626092135906219,
1.47,0.11647641658782959,
1.4724999999999999,0.10421574115753174,
1.4750000000000001,0.10130684077739716,
1.4775,0.099744200706481934,
1.48,0.098662376403808594,
1.4824999999999999,0.094503365457057953,
1.4850000000000001,0.089959703385829926,
1.4875,0.083324514329433441,
1.49,0.07454971969127655,
1.4924999999999999,0.052288174629211426,
1.4950000000000001,0.04012366384267807,
1.4975000000000001,0.028271675109863281,
1.5,0.017501514405012131,
1.5024999999999999,0.0010097026824951172,
1.5049999999999999,-0.004351337905973196,
1.5075000000000001,-0.0079093379899859428,
1.51,-0.010048946365714073,
1.5125,-0.012020270340144634,
1.5149999999999999,-0.012741486541926861,
1.5175000000000001,-0.013703107833862305,
1.52,-0.015073418617248535,
1.5225,-0.018727581948041916,
1.5249999999999999,-0.02062678337097168,
1.5275000000000001,-0.022261541336774826,
1.53,-0.023415487259626389,
1.5325,-0.024040540680289268,
1.5349999999999999,-0.023631852120161057,
1.5375000000000001,-0.02291063591837883,
1.54,-0.022117298096418381,
1.5425,-0.020939311012625694,
1.5449999999999999,-0.02062678337097168,
1.5475000000000001,-0.020434459671378136,
1.55,-0.020194053649902344,
1.5525,-0.018943946808576584,
1.5549999999999999,-0.017717879265546799,
1.5575000000000001,-0.016107162460684776,
1.5600000000000001,-0.014280080795288086,
1.5625,-0.010914405807852745,
1.5649999999999999,-0.0099527835845947266,
1.5674999999999999,-0.0098325815051794052,
1.5700000000000001,-0.010649959556758404,
1.5725,-0.01490513514727354,
1.575,-0.017886161804199219,
1.5774999999999999,-0.021035473793745041,
1.5800000000000001,-0.02399246022105217,
1.5825,-0.027983188629150391,
1.585,-0.02860824391245842,
1.5874999999999999,-0.028295716270804405,
1.5900000000000001,-0.02706964872777462,
1.5925,-0.022838514298200607,
1.595,-0.020434459671378136,
1.5974999999999999,-0.01829485222697258,
1.6000000000000001,-0.016780298203229904,
1.6025,-0.016155242919921875,
1.605,-0.018222730606794357,
1.6074999999999999,-0.020939311012625694,
1.6100000000000001,-0.02444922924041748,
1.6125,-0.028439959511160851,
1.615,-0.035652123391628265,
1.6174999999999999,-0.037767689675092697,
1.6200000000000001,-0.03829658031463623,
1.6225000000000001,-0.036950312554836273,
1.625,-0.028824608772993088,
1.6274999999999999,-0.022766392678022385,
1.6299999999999999,-0.016203325241804123,
1.6325000000000001,-0.0098325815051794052,
1.635,-0.00045677027083002031,
1.6375,0.0016828378429636359,
1.6399999999999999,0.0019232432823628187,
1.6425000000000001,0.00052889192011207342,
1.645,-0.0053610405884683132,
1.6475,-0.0086065139621496201,
1.6499999999999999,-0.011299054138362408,
1.6525000000000001,-0.012981891632080078,
1.655,-0.012741486541926861,
1.6575,-0.011010567657649517,
1.6599999999999999,-0.0085584325715899467,
1.6625000000000001,-0.0057456893846392632,
1.665,-0.00028848648071289062,
1.6675,0.0019232432823628187,
1.6699999999999999,0.0037262837868183851,
1.6725000000000001,0.0051446757279336452,
1.675,0.0072602434083819389,
1.6775,0.0080776214599609375,
1.6799999999999999,0.0087507572025060654,
1.6825000000000001,0.0092315673828125,
1.6850000000000001,0.0092075271531939507,
1.6875,0.0085584325715899467,
1.6899999999999999,0.0074525675736367702,
1.6924999999999999,0.0059860944747924805,
1.6950000000000001,0.0027165811043232679,
1.6975,0.0013943513622507453,
1.7,0.00060101354029029608,
1.7024999999999999,0.00045677027083002031,
1.7050000000000001,0.0019232432823628187,
1.7075,0.0031733512878417969,
1.71,0.004351337905973196,
1.7124999999999999,0.0051206350326538086,
1.7150000000000001,0.0043272972106933594,
1.7175,0.0026204190216958523,
1.72,0.00019232432532589883,
1.7224999999999999,-0.0025723378639668226,
1.7250000000000001,-0.007140040397644043,
1.7275,-0.0079574193805456161,
1.73,-0.0073083243332803249,
1.7324999999999999,-0.0050725541077554226,
1.7350000000000001,0.0034618377685546875,
1.7375,0.008822878822684288,
1.74,0.014063715934753418,
1.7424999999999999,0.018535256385803223,
1.7450000000000001,0.023199122399091721,
1.7475000000000001,0.022934675216674805,
1.75,0.021131634712219238,
1.7524999999999999,0.018102526664733887,
1.7549999999999999,0.01060187816619873,
1.7575000000000001,0.0071640810929238796,
1.76,0.0044475002214312553,
1.7625,0.0026684999465942383,
1.7649999999999999,0.0015145540237426758,
1.7675000000000001,0.0017068784218281507,
1.77,0.002043446060270071,
1.7725,0.002259810920804739,
1.7749999999999999,0.0020194053649902344,
1.7775000000000001,0.0017068784218281507,
1.78,0.0015626351814717054,
1.7825,0.0017549594631418586,
1.7849999999999999,0.0039186081849038601,
1.7875000000000001,0.0059620542451739311,
1.79,0.0085103511810302734,
1.7925,0.011275013908743858,
1.7949999999999999,0.016395648941397667,
1.7975000000000001,0.018246769905090332,
1.8,0.019424756988883018,
1.8025,0.019953649491071701,
1.8049999999999999,0.019472837448120117,
1.8075000000000001,0.018799703568220139,
1.8100000000000001,0.018078487366437912,
1.8125,0.017333230003714561,
1.8149999999999999,0.015698473900556564,
1.8174999999999999,0.014448365196585655,
1.8200000000000001,0.012645324692130089,
1.8225,0.010048946365714073,
1.825,0.0022117297630757093,
1.8274999999999999,-0.0028608243446797132,
1.8300000000000001,-0.0082939863204956055,
1.8325,-0.013679067604243755,
1.835,-0.021924972534179688,
1.8374999999999999,-0.023752054199576378,
1.8400000000000001,-0.023487608879804611,
1.8425,-0.020987391471862793,
1.845,-0.0096402568742632866,
1.8474999999999999,-0.0015626351814717054,
1.8500000000000001,0.0073564052581787109,
1.8525,0.016419690102338791,
1.855,0.032502811402082443,
1.8574999999999999,0.038609109818935394,
1.8600000000000001,0.043056607246398926,
1.8625,0.045869350433349609,
1.865,0.047287743538618088,
1.8674999999999999,0.046446323394775391,
1.8700000000000001,0.044955812394618988,
1.8725000000000001,0.042984485626220703,
1.875,0.038056176155805588,
1.8774999999999999,0.035051107406616211,
1.8799999999999999,0.031637351959943771,
1.8825000000000001,0.027862986549735069,
1.885,0.019809406250715256,
1.8875,0.016155242919921875,
1.8899999999999999,0.013366540893912315,
1.8925000000000001,0.011900067329406738,
1.895,0.014352202415466309,
1.8975,0.018487175926566124,
1.8999999999999999,0.024256905540823936,
1.9025000000000001,0.031108459457755089,
1.905,0.045051973313093185,
1.9075,0.050533216446638107,
1.9099999999999999,0.054187379777431488,
1.9125000000000001,0.055677890777587891,
1.915,0.052312217652797699,
1.9175,0.048249363899230957,
1.9199999999999999,0.043465297669172287,
1.9225000000000001,0.038585066795349121,
1.925,0.030651688575744629,
1.9275,0.028103392571210861,
1.9299999999999999,0.026372473686933517,
1.9325000000000001,0.025218527764081955,
1.9350000000000001,0.023030837997794151,
1.9375,0.021396081894636154,
1.9399999999999999,0.019160311669111252,
1.9424999999999999,0.016347568482160568,
1.9450000000000001,0.0098806619644165039,
1.9475,0.0067313513718545437,
1.95,0.0039186081849038601,
1.9524999999999999,0.0015626351814717054,
1.9550000000000001,-0.0016828378429636359,
1.9575,-0.0026444594841450453,
1.96,-0.0031973919831216335,
1.9624999999999999,-0.0032935540657490492,
1.9650000000000001,-0.0017790000420063734,
1.9675,-4.8081081331474707e-05,
1.97,0.0021636486053466797,
1.9724999999999999,0.0044234595261514187,
1.9750000000000001,0.0061784191057085991,
1.9775,0.0036060810089111328,
1.98,-0.0027165811043232679,
1.9824999999999999,-0.013727148994803429,
1.9850000000000001,-0.050989985466003418,
1.9875,-0.076208516955375671,
1.99,-0.10385513305664062,
1.9924999999999999,-0.13152579963207245,
1.9950000000000001,-0.1746545284986496,
1.9975000000000001,-0.18342933058738708,
2,-0.17941455543041229,0
2.0024999999999999,-0.16003787517547607,
2.0049999999999999,-0.068996354937553406,
2.0074999999999998,0.0031252703629434109,
2.0099999999999998,0.091330014169216156,
2.0125000000000002,0.19285321235656738,
2.0150000000000001,0.30370414257049561,
2.0175000000000001,0.5327143669128418,
2.02,0.6387331485748291,
2.0225,0.73056799173355103,
2.0249999999999999,0.80220878124237061,
2.0274999999999999,0.86594027280807495,
2.0299999999999998,0.85245352983474731,
2.0325000000000002,0.80845934152603149,
2.0350000000000001,0.64113718271255493,
2.0375000000000001,0.52891594171524048,
2.04,0.40731889009475708,
2.0425,0.2843995988368988,
2.0449999999999999,0.16787509620189667,
2.0474999999999999,-0.021035473793745041,
2.0499999999999998,-0.085464119911193848,
2.0525000000000002,-0.12808799743652344,
2.0550000000000002,-0.15482108294963837,
2.0575000000000001,-0.14595012366771698,
2.0600000000000001,-0.12832841277122498,
2.0625,-0.10647555440664291,
2.0649999999999999,-0.06502966582775116,
2.0674999999999999,-0.050220690667629242,
2.0699999999999998,-0.040580432862043381,
2.0724999999999998,-0.03567616268992424,
2.0750000000000002,-0.035267472267150879,
2.0775000000000001,-0.036613743752241135,
2.0800000000000001,-0.037094555795192719,
2.0825,-0.035796366631984711,
2.085,-0.026805203408002853,
2.0874999999999999,-0.019737284630537033,
2.0899999999999999,-0.01185198687016964,
2.0924999999999998,-0.0040147705003619194,
2.0950000000000002,0.0087267160415649414,
2.0975000000000001,0.012837648391723633,
2.1000000000000001,0.015409986488521099,
2.1025,0.016684135422110558,
2.105,0.017044743523001671,
2.1074999999999999,0.017020702362060547,
2.1099999999999999,0.017357271164655685,
2.1124999999999998,0.018222730606794357,
2.1150000000000002,0.021468203514814377,
2.1175000000000002,0.023511648178100586,
2.1200000000000001,0.025579135864973068,
2.1225000000000001,0.027454297989606857,
2.125,0.030050676316022873,
2.1274999999999999,0.030675729736685753,
2.1299999999999999,0.030916135758161545,
2.1324999999999998,0.030868053436279297,
2.1349999999999998,0.030459364876151085,
2.1375000000000002,0.030411284416913986,
2.1400000000000001,0.030747851356863976,
2.1425000000000001,0.031589269638061523,
2.145,0.035604041069746017,
2.1475,0.038969717919826508,
2.1499999999999999,0.043297015130519867,
2.1524999999999999,0.048417650163173676,
2.1549999999999998,0.059764783829450607,
2.1575000000000002,0.065053701400756836,
2.1600000000000001,0.069332920014858246,
2.1625000000000001,0.07209758460521698,
2.165,0.073011122643947601,
2.1675,0.069068476557731628,
2.1699999999999999,0.064957544207572937,
2.1724999999999999,0.060389839112758636,
2.1749999999999998,0.056326985359191895,
2.1775000000000002,0.053706567734479904,
2.1800000000000002,0.056615471839904785,
2.1825000000000001,0.062793895602226257,
2.1850000000000001,0.071953341364860535,
2.1875,0.096210241317749023,
2.1899999999999999,0.1090959757566452,
2.1924999999999999,0.12077967822551727,
2.1949999999999998,0.13025164604187012,
2.1974999999999998,0.13989190757274628,
2.2000000000000002,0.1398678719997406,
2.2025000000000001,0.13722340762615204,
2.2050000000000001,0.132872074842453,
2.2075,0.12325584888458252,
2.21,0.12005846202373505,
2.2124999999999999,0.11900067329406738,
2.2149999999999999,0.12041907012462616,
2.2174999999999998,0.1306363046169281,
2.2200000000000002,0.13864180445671082,
2.2225000000000001,0.14772912859916687,
2.2250000000000001,0.15717706084251404,
2.2275,0.17470261454582214,
2.23,0.18189072608947754,
2.2324999999999999,0.18782874941825867,
2.2349999999999999,0.19251665472984314,
2.2374999999999998,0.1992720365524292,
2.2400000000000002,0.20194053649902344,
2.2425000000000002,0.204585000872612,
2.2450000000000001,0.20732562243938446,
2.2475000000000001,0.21314343810081482,
2.25,0.21569173038005829,
2.2524999999999999,0.21739861369132996,
2.2549999999999999,0.21775922179222107,
2.2574999999999998,0.21249434351921082,
2.2599999999999998,0.20629188418388367,
2.2625000000000002,0.19770941138267517,
2.2650000000000001,0.18708348274230957,
2.2675000000000001,0.16205728054046631,
2.27,0.14914751052856445,
2.2725,0.13691088557243347,
2.2749999999999999,0.12585222721099854,
2.2774999999999999,0.10774970054626465,
2.2799999999999998,0.10010480880737305,
2.2825000000000002,0.092628203332424164,
2.2850000000000001,0.084526538848876953,
2.2875000000000001,0.063899755477905273,
2.29,0.05077362060546875,
2.2925,0.036012731492519379,
2.2949999999999999,0.020362338051199913,
2.2974999999999999,-0.0091594457626342773,
2.2999999999999998,-0.020530622452497482,
2.3025000000000002,-0.028175514191389084,
2.3050000000000002,-0.031493108719587326,
2.3075000000000001,-0.025026202201843262,
2.3100000000000001,-0.016563933342695236,
2.3125,-0.0061543784104287624,
2.3149999999999999,0.0047600269317626953,
2.3174999999999999,0.022670229896903038,
2.3199999999999998,0.027718743309378624,
2.3224999999999998,0.029545824974775314,
2.3250000000000002,0.028295716270804405,
2.3275000000000001,0.018823742866516113,
2.3300000000000001,0.012212594971060753,
2.3325,0.0054812431335449219,
2.335,-0.00072121620178222656,
2.3374999999999999,-0.010145108215510845,
2.3399999999999999,-0.013270378112792969,
2.3424999999999998,-0.015578269958496094,
2.3450000000000002,-0.017333230003714561,
2.3475000000000001,-0.020218094810843468,
2.3500000000000001,-0.021564364433288574,
2.3525,-0.02291063591837883,
2.355,-0.024088621139526367,
2.3574999999999999,-0.025627216324210167,
2.3599999999999999,-0.025915702804923058,
2.3624999999999998,-0.02598782442510128,
2.3650000000000002,-0.026011865586042404,
2.3675000000000002,-0.026877325028181076,
2.3700000000000001,-0.02815147303044796,
2.3725000000000001,-0.030122797936201096,
2.375,-0.032719176262617111,
2.3774999999999999,-0.03875335305929184,
2.3799999999999999,-0.04137377068400383,
2.3824999999999998,-0.043056607246398926,
2.3849999999999998,-0.043393176048994064,
2.3875000000000002,-0.038777392357587814,
2.3900000000000001,-0.033801000565290451,
2.3925000000000001,-0.027334094047546387,
2.395,-0.019977688789367676,
2.3975,-0.0052889189682900906,
2.3999999999999999,0.00050485134124755859,
2.4024999999999999,0.0043753786012530327,
2.4049999999999998,0.0058658919297158718,
2.4075000000000002,0.0012741487007588148,
2.4100000000000001,-0.0041830539703369141,
2.4125000000000001,-0.010962486267089844,
2.415,-0.018174648284912109,
2.4175,-0.030387243255972862,
2.4199999999999999,-0.033873122185468674,
2.4224999999999999,-0.035051107406616211,
2.4249999999999998,-0.033897161483764648,
2.4275000000000002,-0.026059946045279503,
2.4300000000000002,-0.020867189392447472,
2.4325000000000001,-0.015938878059387207,
2.4350000000000001,-0.01214047335088253,
2.4375,-0.010024905204772949,
2.4399999999999999,-0.011948148719966412,
2.4424999999999999,-0.01538594625890255,
2.4449999999999998,-0.01966516301035881,
2.4474999999999998,-0.023848216980695724,
2.4500000000000002,-0.028584202751517296,
2.4525000000000001,-0.027911067008972168,
2.4550000000000001,-0.025050243362784386,
2.4575,-0.014183918945491314,
2.46,-0.0077891349792480469,
2.4624999999999999,-0.0020194053649902344,
2.4649999999999999,0.002259810920804739,
2.4674999999999998,0.0043272972106933594,
2.4700000000000002,0.0021155676804482937,
2.4725000000000001,-0.0016587972640991211,
2.4750000000000001,-0.0061062974855303764,
2.4775,-0.013462702743709087,
2.48,-0.01490513514727354,
2.4824999999999999,-0.014400283806025982,
2.4849999999999999,-0.012116432189941406,
2.4874999999999998,-0.0042792162857949734,
2.4900000000000002,-0.00026444596005603671,
2.4925000000000002,0.0028848648071289062,
2.4950000000000001,0.0046398243866860867,
2.4975000000000001,0.0039426488801836967,
2.5,0.0021876893006265163,
2.5024999999999999,0.000312527030473575,
2.5049999999999999,-0.001033743261359632,
2.5074999999999998,-0.00038464865065179765,
2.5099999999999998,0.0017549594631418586,
2.5125000000000002,0.0046638650819659233,
2.5150000000000001,0.0076448917388916016,
2.5175000000000001,0.011154810898005962,
2.52,0.01060187816619873,
2.5225,0.0082939863204956055,
2.5249999999999999,0.0044715404510498047,
2.5274999999999999,-0.0050244731828570366,
2.5299999999999998,-0.009039243683218956,
2.5325000000000002,-0.011515418998897076,
2.5350000000000001,-0.012044310569763184,
2.5375000000000001,-0.007091959472745657,
2.54,-0.0025963783264160156,
2.5425,0.0021155676804482937,
2.5449999999999999,0.0061062974855303764,
2.5474999999999999,0.008822878822684288,
2.5499999999999998,0.006707310676574707,
2.5525000000000002,0.0024521350860595703,
2.5550000000000002,-0.0033416352234780788,
2.5575000000000001,-0.015746554359793663,
2.5600000000000001,-0.020170014351606369,
2.5625,-0.022189419716596603,
2.5649999999999999,-0.021251838654279709,
2.5674999999999999,-0.010433594696223736,
2.5699999999999998,-0.0016347568016499281,
2.5724999999999998,0.0081497430801391602,
2.5750000000000002,0.017645757645368576,
2.5775000000000001,0.031180581077933311,
2.5800000000000001,0.033488474786281586,
2.5825,0.032358568161725998,
2.585,0.027983188629150391,
2.5874999999999999,0.012380878441035748,
2.5899999999999999,0.0033416352234780788,
2.5924999999999998,-0.0050244731828570366,
2.5950000000000002,-0.011707743629813194,
2.5975000000000001,-0.017886161804199219,
2.6000000000000001,-0.017333230003714561,
2.6025,-0.01490513514727354,
2.605,-0.011467337608337402,
2.6074999999999999,-0.0078372163698077202,
2.6099999999999999,-0.0029329459648579359,
2.6124999999999998,-0.0024521350860595703,
2.6150000000000002,-0.0031493108253926039,
2.6175000000000002,-0.0062024593353271484,
2.6200000000000001,-0.0071160001680254936,
2.6225000000000001,-0.0067553920671343803,
2.625,-0.0047119460068643093,
2.6274999999999999,-0.00093758106231689453,
2.6299999999999999,0.01031339168548584,
2.6324999999999998,0.01629948616027832,
2.6349999999999998,0.021347999572753906,
2.6375000000000002,0.024593472480773926,
2.6400000000000001,0.023559730499982834,
2.6425000000000001,0.019088190048933029,
2.645,0.01247704029083252,
2.6475,0.004519621841609478,
2.6499999999999999,-0.011635622009634972,
2.6524999999999999,-0.017886161804199219,
2.6549999999999998,-0.021876892074942589,
2.6575000000000002,-0.023295283317565918,
2.6600000000000001,-0.018342932686209679,
2.6625000000000001,-0.012789567932486534,
2.665,-0.0060582160949707031,
2.6675,0.0011058648815378547,
2.6699999999999999,0.014232000336050987,
2.6724999999999999,0.019280513748526573,
2.6749999999999998,0.023151040077209473,
2.6775000000000002,0.025867622345685959,
2.6800000000000002,0.028872689232230186,
2.6825000000000001,0.02969006821513176,
2.6850000000000001,0.030411284416913986,
2.6875,0.03106037899851799,
2.6899999999999999,0.031901799142360687,
2.6924999999999999,0.031685434281826019,
2.6949999999999998,0.030795931816101074,
2.6974999999999998,0.029040973633527756,
2.7000000000000002,0.02291063591837883,
2.7025000000000001,0.01891990564763546,
2.7050000000000001,0.014808973297476768,
2.7075,0.011034607887268066,
2.71,0.0065149865113198757,
2.7124999999999999,0.0065390272065997124,
2.7149999999999999,0.0083901491016149521,
2.7174999999999998,0.011996230110526085,
2.7200000000000002,0.023367404937744141,
2.7225000000000001,0.030218958854675293,
2.7250000000000001,0.037094555795192719,
2.7275,0.043417215347290039,
2.73,0.052576661109924316,
2.7324999999999999,0.054836474359035492,
2.7349999999999999,0.055485568940639496,
2.7374999999999998,0.054620109498500824,
2.7400000000000002,0.04935523122549057,
2.7425000000000002,0.045556824654340744,
2.7450000000000001,0.041397809982299805,
2.7475000000000001,0.037070512771606445,
2.75,0.028488039970397949,
2.7524999999999999,0.024329027161002159,
2.7549999999999999,0.020242135971784592,
2.7574999999999998,0.016155242919921875,
2.7599999999999998,0.0078372163698077202,
2.7625000000000002,0.0036060810089111328,
2.7650000000000001,-0.00069717568112537265,
2.7675000000000001,-0.0050004324875771999,
2.77,-0.013414621353149414,
2.7725,-0.017357271164655685,
2.7749999999999999,-0.020891230553388596,
2.7774999999999999,-0.023872256278991699,
2.7799999999999998,-0.027117729187011719,
2.7825000000000002,-0.026853283867239952,
2.7850000000000001,-0.025026202201843262,
2.7875000000000001,-0.021588405594229698,
2.79,-0.010746121406555176,
2.7925,-0.0044234595261514187,
2.7949999999999999,0.0013222297420725226,
2.7974999999999999,0.0054331622086465359,
2.7999999999999998,0.0040628514252603054,
2.8025000000000002,-0.0032695136032998562,
2.8050000000000002,-0.015746554359793663,
2.8075000000000001,-0.033248066902160645,
2.8100000000000001,-0.080199241638183594,
2.8125,-0.10671596229076385,
2.8149999999999999,-0.13260762393474579,
2.8174999999999999,-0.15556633472442627,
2.8199999999999998,-0.18306872248649597,
2.8224999999999998,-0.18302063643932343,
2.8250000000000002,-0.17104844748973846,
2.8275000000000001,-0.14554142951965332,
2.8300000000000001,-0.049763917922973633,
2.8325,0.02108355425298214,
2.835,0.10623514652252197,
2.8374999999999999,0.20376762747764587,
2.8399999999999999,0.42227208614349365,
2.8424999999999998,0.53365194797515869,
2.8450000000000002,0.6385648250579834,
2.8475000000000001,0.7304958701133728,
2.8500000000000001,0.85093897581100464,
2.8525,0.86981081962585449,
2.855,0.85762226581573486,
2.8574999999999999,0.81454157829284668,
2.8599999999999999,0.64837336540222168,
2.8624999999999998,0.53675317764282227,
2.8650000000000002,0.41611772775650024,
2.8675000000000002,0.29459279775619507,
2.8700000000000001,0.078203879296779633,
2.8725000000000001,-0.0056495270691812038,
2.875,-0.069212719798088074,
2.8774999999999999,-0.11214911937713623,
2.8799999999999999,-0.14393071830272675,
2.8824999999999998,-0.13979575037956238,
2.8849999999999998,-0.12789568305015564,
2.8875000000000002,-0.11222124099731445,
2.8900000000000001,-0.081785917282104492,
2.8925000000000001,-0.070631109178066254,
2.895,-0.062890052795410156,
2.8975,-0.058009825646877289,
2.8999999999999999,-0.052744947373867035,
2.9024999999999999,-0.050028365105390549,
2.9049999999999998,-0.046061675995588303,
2.9075000000000002,-0.040364068001508713,
2.9100000000000001,-0.024112662300467491,
2.9125000000000001,-0.01461664866656065,
2.915,-0.0051687164232134819,
2.9175,0.0034137568436563015,
2.9199999999999999,0.015337864868342876,
2.9224999999999999,0.017886161804199219,
2.9249999999999998,0.018102526664733887,
2.9275000000000002,0.0161312036216259,
2.9300000000000002,0.0073564052581787109,
2.9325000000000001,0.0015866756439208984,
2.9350000000000001,-0.004351337905973196,
2.9375,-0.0099527835845947266,
2.9399999999999999,-0.018535256385803223,
2.9424999999999999,-0.020963352173566818,
2.9449999999999998,-0.021924972534179688,
2.9474999999999998,-0.021347999572753906,
2.9500000000000002,-0.015650391578674316,
2.9525000000000001,-0.010698040947318077,
2.9550000000000001,-0.00461578369140625,
2.9575,0.0023800134658813477,
2.96,0.017765959724783897,
2.9624999999999999,0.0253627710044384,
2.9649999999999999,0.032382607460021973,
2.9674999999999998,0.038416784256696701,
2.9700000000000002,0.046662688255310059,
2.9725000000000001,0.048754215240478516,
2.9750000000000001,0.049619674682617188,
2.9775,0.049619674682617188,
2.98,0.048489771783351898,
2.9824999999999999,0.04815320298075676,
2.9849999999999999,0.048345528542995453,
2.9874999999999998,0.049162905663251877,
2.9900000000000002,0.052432417869567871,
2.9925000000000002,0.054379701614379883,
2.9950000000000001,0.056158702820539474,
2.9975000000000001,0.057480931282043457,
3,0.058490633964538574,0
3.0024999999999999,0.058418512344360352,
3.0049999999999999,0.058346390724182129,
3.0074999999999998,0.058731041848659515,
3.0099999999999998,0.062337122857570648,
3.0125000000000002,0.066015325486660004,
3.0150000000000001,0.070847474038600922,
3.0175000000000001,0.076497003436088562,
3.02,0.088084541261196136,
3.0225,0.092820525169372559,
3.0249999999999999,0.096210241317749023,
3.0274999999999999,0.098061367869377136,
3.0299999999999998,0.09796520322561264,
3.0325000000000002,0.097195908427238464,
3.0350000000000001,0.097075700759887695,
3.0375000000000001,0.098446011543273926,
3.04,0.10851900279521942,
3.0425,0.1177746057510376,
3.0449999999999999,0.12957851588726044,
3.0474999999999999,0.14328162372112274,
3.0499999999999998,0.15794634819030762,
3.0525000000000002,0.18578529357910156,
3.0550000000000002,0.1970362663269043,
3.0575000000000001,0.20557066798210144,
3.0600000000000001,0.21114806830883026,
3.0625,0.21403293311595917,
3.0649999999999999,0.21227797865867615,
3.0674999999999999,0.20922482013702393,
3.0699999999999998,0.20549854636192322,
3.0724999999999998,0.19773344695568085,
3.0750000000000002,0.19407927989959717,
3.0775000000000001,0.19042512774467468,
3.0800000000000001,0.18648247420787811,
3.0825,0.17643353343009949,
3.085,0.16972622275352478,
3.0874999999999999,0.16172072291374207,
3.0899999999999999,0.15248915553092957,
3.0924999999999998,0.1314777135848999,
3.0950000000000002,0.1205633133649826,
3.0975000000000001,0.1100335568189621,
3.1000000000000001,0.10027309507131577,
3.1025,0.08416593074798584,
3.105,0.077939435839653015,
3.1074999999999999,0.072674557566642761,
3.1099999999999999,0.068034730851650238,
3.1124999999999998,0.059091649949550629,
3.1150000000000002,0.05401909351348877,
3.1175000000000002,0.048249363899230957,
3.1200000000000001,0.041710339486598969,
3.1225000000000001,0.026877325028181076,
3.125,0.019160311669111252,
3.1274999999999999,0.011755824089050293,
3.1299999999999999,0.0049763917922973633,
3.1324999999999998,-0.0056254863739013672,
3.1349999999999998,-0.009255608543753624,
3.1375000000000002,-0.011803905479609966,
3.1400000000000001,-0.01353482436388731,
3.1425000000000001,-0.015409986488521099,
3.145,-0.016179284080862999,
3.1475,-0.017188986763358116,
3.1499999999999999,-0.018703540787100792,
3.1524999999999999,-0.023848216980695724,
3.1549999999999998,-0.027646621689200401,
3.1575000000000002,-0.032214324921369553,
3.1600000000000001,-0.037455163896083832,
3.1625000000000001,-0.048898458480834961,
3.165,-0.054451823234558105,
3.1675,-0.059404175728559494,
3.1699999999999999,-0.063370868563652039,
3.1724999999999999,-0.067337557673454285,
3.1749999999999998,-0.06707310676574707,
3.1775000000000002,-0.065366230905056,
3.1800000000000002,-0.062433283776044846,
3.1825000000000001,-0.05401909351348877,
3.1850000000000001,-0.049186944961547852,
3.1875,-0.044258635491132736,
3.1899999999999999,-0.039426486939191818,
3.1924999999999999,-0.030387243255972862,
3.1949999999999998,-0.026180148124694824,
3.1974999999999998,-0.022237500175833702,
3.2000000000000002,-0.018655460327863693,
3.2025000000000001,-0.013054013252258301,
3.2050000000000001,-0.011443297378718853,
3.2075,-0.010914405807852745,
3.21,-0.011539459228515625,
3.2124999999999999,-0.016203325241804123,
3.2149999999999999,-0.019881527870893478,
3.2174999999999998,-0.024016499519348145,
3.2200000000000002,-0.028247635811567307,
3.2225000000000001,-0.035628080368041992,
3.2250000000000001,-0.038344662636518478,
3.2275,-0.040364068001508713,
3.23,-0.041782461106777191,
3.2324999999999999,-0.043729744851589203,
3.2349999999999999,-0.044691365212202072,
3.2374999999999998,-0.045893393456935883,
3.2400000000000002,-0.047335825860500336,
3.2425000000000002,-0.050677459686994553,
3.2450000000000001,-0.052095852792263031,
3.2475000000000001,-0.052985351532697678,
3.25,-0.0530574731528759,
3.2524999999999999,-0.050052404403686523,
3.2549999999999999,-0.046903096139431,
3.2574999999999998,-0.042792163789272308,
3.2599999999999998,-0.03800809383392334,
3.2625000000000002,-0.027766823768615723,
3.2650000000000001,-0.022982757538557053,
3.2675000000000001,-0.018871825188398361,
3.27,-0.015602311119437218,
3.2725,-0.012068351730704308,
3.2749999999999999,-0.011755824089050293,
3.2774999999999999,-0.012284716591238976,
3.2799999999999998,-0.013606945984065533,
3.2825000000000002,-0.018198689445853233,
3.2850000000000001,-0.02137204073369503,
3.2875000000000001,-0.025122364982962608,
3.29,-0.029329460114240646,
3.2925,-0.038681231439113617,
3.2949999999999999,-0.043321054428815842,
3.2974999999999999,-0.047431986778974533,
3.2999999999999998,-0.050581298768520355,
3.3025000000000002,-0.052456460893154144,
3.3050000000000002,-0.05060533806681633,
3.3075000000000001,-0.046830974519252777,
3.3100000000000001,-0.041325688362121582,
3.3125,-0.026997527107596397,
3.3149999999999999,-0.019400715827941895,
3.3174999999999999,-0.012404918670654297,
3.3199999999999998,-0.006611148826777935,
3.3224999999999998,-0.00024040541029535234,
3.3250000000000002,-2.4040540665737353e-05,
3.3275000000000001,-0.0017068784218281507,
3.3300000000000001,-0.0050244731828570366,
3.3325,-0.01490513514727354,
3.335,-0.020530622452497482,
3.3374999999999999,-0.025963783264160156,
3.3399999999999999,-0.030699770897626877,
3.3424999999999998,-0.036565661430358887,
3.3450000000000002,-0.037070512771606445,
3.3475000000000001,-0.03584444522857666,
3.3500000000000001,-0.032959580421447754,
3.3525,-0.023559730499982834,
3.355,-0.018222730606794357,
3.3574999999999999,-0.013438662514090538,
3.3599999999999999,-0.0099768247455358505,
3.3624999999999998,-0.0092315673828125,
3.3650000000000002,-0.012404918670654297,
3.3675000000000002,-0.017693838104605675,
3.3700000000000001,-0.024401148781180382,
3.3725000000000001,-0.038032136857509613,
3.375,-0.042695999145507812,
3.3774999999999999,-0.044643282890319824,
3.3799999999999999,-0.043297015130519867,
3.3824999999999998,-0.030723810195922852,
3.3849999999999998,-0.020795067772269249,
3.3875000000000002,-0.0099287433549761772,
3.3900000000000001,0.00045677027083002031,
3.3925000000000001,0.01461664866656065,
3.395,0.01646777056157589,
3.3975,0.014400283806025982,
3.3999999999999999,0.0087267160415649414,
3.4024999999999999,-0.0098325815051794052,
3.4049999999999998,-0.020194053649902344,
3.4075000000000002,-0.029449662193655968,
3.4100000000000001,-0.036493539810180664,
3.4125000000000001,-0.041349731385707855,
3.415,-0.039065878838300705,
3.4175,-0.034281812608242035,
3.4199999999999999,-0.028007229790091515,
3.4224999999999999,-0.015361905097961426,
3.4249999999999998,-0.011034607887268066,
3.4275000000000002,-0.0089430809020996094,
3.4300000000000002,-0.009351770393550396,
3.4325000000000001,-0.016660094261169434,
3.4350000000000001,-0.022237500175833702,
3.4375,-0.027911067008972168,
3.4399999999999999,-0.032767258584499359,
3.4424999999999999,-0.037118595093488693,
3.4449999999999998,-0.035796366631984711,
3.4474999999999998,-0.032166242599487305,
3.4500000000000002,-0.02661287784576416,
3.4525000000000001,-0.019689202308654785,
3.4550000000000001,-0.0047600269317626953,
3.4575,0.0017790000420063734,
3.46,0.0068996353074908257,
3.4624999999999999,0.011731783859431744,
3.4649999999999999,0.011443297378718853,
3.4674999999999998,0.0097123784944415092,
3.4700000000000002,0.0070198378525674343,
3.4725000000000001,0.0038945674896240234,
3.4750000000000001,-0.0016107162227854133,
3.4775,-0.0032214324455708265,
3.48,-0.0038945674896240234,
3.4824999999999999,-0.0029810271225869656,
3.4849999999999999,-0.0020194053649902344,
3.4874999999999998,-0.0012741487007588148,
3.4900000000000002,-0.0011058648815378547,
3.4925000000000002,-0.0033175945281982422,
3.4950000000000001,-0.0055293245241045952,
3.4975000000000001,-0.0080776214599609375,
3.5,-0.010433594696223736,
3.5024999999999999,-0.012380878441035748,
3.5049999999999999,-0.011106729507446289,
3.5074999999999998,-0.0081016626209020615,
3.5099999999999998,-0.0034858784638345242,
3.5125000000000002,0.009015202522277832,
3.5150000000000001,0.015722513198852539,
3.5175000000000001,0.021924972534179688,
3.52,0.027093689888715744,
3.5225,0.033151905983686447,
3.5249999999999999,0.033921204507350922,
3.5274999999999999,0.033416353166103363,
3.5299999999999998,0.031901799142360687,
3.5325000000000002,0.029641985893249512,
3.5350000000000001,0.023776095360517502,
3.5375000000000001,0.020434459671378136,
3.54,0.016876459121704102,
3.5425,0.0089911622926592827,
3.5449999999999999,0.0046398243866860867,
3.5474999999999999,7.2121620178222656e-05,
3.5499999999999998,-0.0046638650819659233,
3.5525000000000002,-0.0094719734042882919,
3.5550000000000002,-0.019016068428754807,
3.5575000000000001,-0.023655891418457031,
3.5600000000000001,-0.028127431869506836,
3.5625,-0.036325257271528244,
3.5649999999999999,-0.039787095040082932,
3.5674999999999999,-0.04262387752532959,
3.5699999999999998,-0.044691365212202072,
3.5724999999999998,-0.046181879937648773,
3.5750000000000002,-0.045917432755231857,
3.5775000000000001,-0.045532785356044769,
3.5800000000000001,-0.045749150216579437,
3.5825,-0.051470797508955002,
3.585,-0.058658920228481293,
3.5874999999999999,-0.069477163255214691,
3.5899999999999999,-0.083949565887451172,
3.5924999999999998,-0.12092392146587372,
3.5950000000000002,-0.14032463729381561,
3.5975000000000001,-0.15729725360870361,
3.6000000000000001,-0.16902904212474823,
3.6025,-0.16506235301494598,
3.605,-0.14407496154308319,
3.6074999999999999,-0.10777374356985092,
3.6099999999999999,-0.055269204080104828,
3.6124999999999998,0.096618935465812683,
3.6150000000000002,0.19205987453460693,
3.6175000000000002,0.29591500759124756,
3.6200000000000001,0.40330410003662109,
3.6225000000000001,0.60567736625671387,
3.625,0.68840086460113525,
3.6274999999999999,0.75102651119232178,
3.6299999999999999,0.78884226083755493,
3.6324999999999998,0.77884137630462646,
3.6349999999999998,0.73018336296081543,
3.6375000000000002,0.6554412841796875,
3.6400000000000001,0.5593031644821167,
3.6425000000000001,0.32885056734085083,
3.645,0.20944118499755859,
3.6475,0.097003579139709473,
3.6499999999999999,-0.0022117297630757093,
3.6524999999999999,-0.083613000810146332,
3.6549999999999998,-0.18386206030845642,
3.6575000000000002,-0.203094482421875,
3.6600000000000001,-0.20480136573314667,
3.6625000000000001,-0.19280514121055603,
3.665,-0.14539718627929688,
3.6675,-0.11835157871246338,
3.6699999999999999,-0.093589827418327332,
3.6724999999999999,-0.073275566101074219,
3.6749999999999998,-0.049331188201904297,
3.6775000000000002,-0.045027934014797211,
3.6800000000000002,-0.044402878731489182,
3.6825000000000001,-0.045893393456935883,
3.6850000000000001,-0.049571596086025238,
3.6875,-0.049571596086025238,
3.6899999999999999,-0.047576230019330978,
3.6924999999999999,-0.043513379991054535,
3.6949999999999998,-0.030892094597220421,
3.6974999999999998,-0.023607810959219933,
3.7000000000000002,-0.016732215881347656,
3.7025000000000001,-0.010938446037471294,
3.7050000000000001,-0.0045436620712280273,
3.7075,-0.0044234595261514187,
3.71,-0.0062745809555053711,
3.7124999999999999,-0.0097364187240600586,
3.7149999999999999,-0.019160311669111252,
3.7174999999999998,-0.023655891418457031,
3.7200000000000002,-0.026997527107596397,
3.7225000000000001,-0.028439959511160851,
3.7250000000000001,-0.023800134658813477,
3.7275,-0.017501514405012131,
3.73,-0.0089430809020996094,
3.7324999999999999,0.0011299054604023695,
3.7349999999999999,0.021660527214407921,
3.7374999999999998,0.029810270294547081,
3.7400000000000002,0.035171311348676682,
3.7425000000000002,0.037070512771606445,
3.7450000000000001,0.030218958854675293,
3.7475000000000001,0.022574067115783691,
3.75,0.013606945984065533,
3.7524999999999999,0.004784067627042532,
3.7549999999999999,-0.006827513687312603,
3.7574999999999998,-0.0074044866487383842,
3.7599999999999998,-0.0038705270271748304,
3.7625000000000002,0.0035580000840127468,
3.7650000000000001,0.026588838547468185,
3.7675000000000001,0.039546690881252289,
3.77,0.051494836807250977,
3.7725,0.061255298554897308,
3.7749999999999999,0.071111917495727539,
3.7774999999999999,0.070991717278957367,
3.7799999999999998,0.06815493106842041,
3.7825000000000002,0.063515111804008484,
3.7850000000000001,0.053129594773054123,
3.7875000000000001,0.04940330982208252,
3.79,0.047552190721035004,
3.7925,0.047912798821926117,
3.7949999999999999,0.054740309715270996,
3.7974999999999999,0.060269635170698166,
3.7999999999999998,0.066375933587551117,
3.8025000000000002,0.07248222827911377,
3.8050000000000002,0.082771584391593933,
3.8075000000000001,0.08661806583404541,
3.8100000000000001,0.089767381548881531,
3.8125,0.092556081712245941,
3.8149999999999999,0.099335514008998871,
3.8174999999999999,0.10443210601806641,
3.8199999999999998,0.11125962436199188,
3.8224999999999998,0.11998634040355682,
3.8250000000000002,0.14239212870597839,
3.8275000000000001,0.15501341223716736,
3.8300000000000001,0.16746640205383301,
3.8325,0.17876546084880829,
3.835,0.1944158524274826,
3.8374999999999999,0.1975892037153244,
3.8399999999999999,0.19746899604797363,
3.8424999999999998,0.19439181685447693,
3.8450000000000002,0.18246769905090332,
3.8475000000000001,0.17559210956096649,
3.8500000000000001,0.16943773627281189,
3.8525,0.16479790210723877,
3.855,0.16126394271850586,
3.8574999999999999,0.16196112334728241,
3.8599999999999999,0.16347567737102509,
3.8624999999999998,0.16482195258140564,
3.8650000000000002,0.16316315531730652,
3.8675000000000002,0.15859544277191162,
3.8700000000000001,0.15097460150718689,
3.8725000000000001,0.14034867286682129,
3.875,0.11198084056377411,
3.8774999999999999,0.095801554620265961,
3.8799999999999999,0.079526111483573914,
3.8824999999999998,0.064043998718261719,
3.8849999999999998,0.038320623338222504,
3.8875000000000002,0.028848648071289062,
3.8900000000000001,0.021684568375349045,
3.8925000000000001,0.016612013801932335,
3.895,0.010842284187674522,
3.8975,0.009015202522277832,
3.8999999999999999,0.007091959472745657,
3.9024999999999999,0.0046879053115844727,
3.9049999999999998,-0.0025723378639668226,
3.9075000000000002,-0.0074766082689166069,
3.9100000000000001,-0.013005932793021202,
3.9125000000000001,-0.018799703568220139,
3.915,-0.029810270294547081,
3.9175,-0.034402012825012207,
3.9199999999999999,-0.038224458694458008,
3.9224999999999999,-0.041253566741943359,
3.9249999999999998,-0.045628946274518967,
3.9275000000000002,-0.04752814769744873,
3.9300000000000002,-0.049571596086025238,
3.9325000000000001,-0.051999688148498535,
3.9350000000000001,-0.058154068887233734,
3.9375,-0.061639945954084396,
3.9399999999999999,-0.065101787447929382,
3.9424999999999999,-0.068227052688598633,
3.9449999999999998,-0.072506271302700043,
3.9474999999999998,-0.073347687721252441,
3.9500000000000002,-0.073395773768424988,
3.9525000000000001,-0.072746679186820984,
3.9550000000000001,-0.070390701293945312,
3.9575,-0.069116555154323578,
3.96,-0.067962609231472015,
3.9624999999999999,-0.066952906548976898,
3.9649999999999999,-0.064837336540222168,
3.9674999999999998,-0.063322782516479492,
3.9700000000000002,-0.061183176934719086,
3.9725000000000001,-0.058298312127590179,
3.9750000000000001,-0.050316851586103439,
3.9775,-0.045628946274518967,
3.98,-0.040965080261230469,
3.9824999999999999,-0.036806069314479828,
3.9849999999999999,-0.031829677522182465,
3.9874999999999998,-0.031709473580121994,
3.9900000000000002,-0.033320188522338867,
3.9925000000000002,-0.036541622132062912,
3.9950000000000001,-0.046470366418361664,
3.9975000000000001,-0.052119892090559006,
4,-0.057480931282043457,74.380165100097656
4.0025000000000004,-0.062096714973449707,
4.0049999999999999,-0.06781836599111557,
4.0075000000000003,-0.068755947053432465,
4.0099999999999998,-0.068635746836662292,
4.0125000000000002,-0.067770287394523621,
4.0149999999999997,-0.065462395548820496,
4.0175000000000001,-0.064693093299865723,
4.0199999999999996,-0.064452692866325378,
4.0225,-0.064765214920043945,
4.0250000000000004,-0.066183611750602722,
4.0274999999999999,-0.066640377044677734,
4.0300000000000002,-0.066424012184143066,
4.0324999999999998,-0.065246030688285828,
4.0350000000000001,-0.059476297348737717,
4.0374999999999996,-0.05505283921957016,
4.04,-0.050028365105390549,
4.0425000000000004,-0.044859647750854492,
4.0449999999999999,-0.036036770790815353,
4.0475000000000003,-0.033199988305568695,
4.0499999999999998,-0.031733512878417969,
4.0525000000000002,-0.031589269638061523,
4.0549999999999997,-0.034450095146894455,
4.0575000000000001,-0.036709904670715332,
4.0599999999999996,-0.03892163559794426,
4.0625,-0.040724676102399826,
4.0650000000000004,-0.042335391044616699,
4.0674999999999999,-0.042119026184082031,
4.0700000000000003,-0.041445892304182053,
4.0724999999999998,-0.040580432862043381,
4.0750000000000002,-0.039426486939191818,
4.0774999999999997,-0.039498608559370041,
4.0800000000000001,-0.040051542222499847,
4.0824999999999996,-0.040965080261230469,
4.085,-0.042936407029628754,
4.0875000000000004,-0.043513379991054535,
4.0899999999999999,-0.043609540909528732,
4.0925000000000002,-0.043152771890163422,
4.0949999999999998,-0.041277609765529633,
4.0975000000000001,-0.040364068001508713,
4.0999999999999996,-0.039811134338378906,
4.1025,-0.039859216660261154,
4.1050000000000004,-0.041758418083190918,
4.1074999999999999,-0.043224893510341644,
4.1100000000000003,-0.044547121971845627,
4.1124999999999998,-0.045220255851745605,
4.1150000000000002,-0.043224893510341644,
4.1174999999999997,-0.04017174243927002,
4.1200000000000001,-0.035916566848754883,
4.1224999999999996,-0.030819972977042198,
4.125,-0.02062678337097168,
4.1275000000000004,-0.016828378662467003,
4.1299999999999999,-0.014640688896179199,
4.1325000000000003,-0.01430412195622921,
4.1349999999999998,-0.015866756439208984,
4.1375000000000002,-0.023295283317565918,
4.1399999999999997,-0.028007229790091515,
4.1425000000000001,-0.032454729080200195,
4.1449999999999996,-0.038320623338222504,
4.1475,-0.03904183954000473,
4.1500000000000004,-0.038320623338222504,
4.1524999999999999,-0.036397378891706467,
4.1550000000000002,-0.031084418296813965,
4.1574999999999998,-0.02877652645111084,
4.1600000000000001,-0.027406215667724609,
4.1624999999999996,-0.027237933129072189,
4.165,-0.030771892517805099,
4.1675000000000004,-0.034089487046003342,
4.1699999999999999,-0.03796001523733139,
4.1725000000000003,-0.041926704347133636,
4.1749999999999998,-0.04844168946146965,
4.1775000000000002,-0.050461094826459885,
4.1799999999999997,-0.051470797508955002,
4.1825000000000001,-0.051542919129133224,
4.1849999999999996,-0.049547553062438965,
4.1875,-0.047912798821926117,
4.1900000000000004,-0.046085715293884277,
4.1924999999999999,-0.044210553169250488,
4.1950000000000003,-0.04017174243927002,
4.1974999999999998,-0.03783981129527092,
4.2000000000000002,-0.035171311348676682,
4.2024999999999997,-0.032094120979309082,
4.2050000000000001,-0.025026202201843262,
4.2074999999999996,-0.021420121192932129,
4.21,-0.018174648284912109,
4.2125000000000004,-0.01567443273961544,
4.2149999999999999,-0.014087757095694542,
4.2175000000000002,-0.015361905097961426,
4.2199999999999998,-0.017934244126081467,
4.2225000000000001,-0.021612446755170822,
4.2249999999999996,-0.030579566955566406,
4.2275,-0.035027068108320236,
4.2300000000000004,-0.038897596299648285,
4.2324999999999999,-0.041998825967311859,
4.2350000000000003,-0.044186513870954514,
4.2374999999999998,-0.046109758317470551,
4.2400000000000002,-0.0461578369140625,
4.2424999999999997,-0.045845311135053635,
4.2450000000000001,-0.045196216553449631,
4.2474999999999996,-0.042768120765686035,
4.25,-0.040604472160339355,
4.2525000000000004,-0.037503242492675781,
4.2549999999999999,-0.033248066902160645,
4.2575000000000003,-0.021251838654279709,
4.2599999999999998,-0.013871392235159874,
4.2625000000000002,-0.0061543784104287624,
4.2649999999999997,0.0013462703209370375,
4.2675000000000001,0.013462702743709087,
4.2699999999999996,0.017140906304121017,
4.2725,0.018992027267813683,
4.2750000000000004,0.019040107727050781,
4.2774999999999999,0.01490513514727354,
4.2800000000000002,0.011611580848693848,
4.2824999999999998,0.0081257028505206108,
4.2850000000000001,0.004735986702144146,
4.2874999999999996,-0.0011779865017160773,
4.29,-0.0038464865647256374,
4.2925000000000004,-0.006659229751676321,
4.2949999999999999,-0.0099047031253576279,
4.2975000000000003,-0.018823742866516113,
4.2999999999999998,-0.024689635261893272,
4.3025000000000002,-0.031348865479230881,
4.3049999999999997,-0.038561027497053146,
4.3075000000000001,-0.052744947373867035,
4.3099999999999996,-0.058682959526777267,
4.3125,-0.063154503703117371,
4.3150000000000004,-0.065798960626125336,
4.3174999999999999,-0.064861379563808441,
4.3200000000000003,-0.061519742012023926,
4.3224999999999998,-0.056831836700439453,
4.3250000000000002,-0.051566958427429199,
4.3274999999999997,-0.043321054428815842,
4.3300000000000001,-0.042527716606855392,
4.3324999999999996,-0.045364499092102051,
4.335,-0.052504539489746094,
4.3375000000000004,-0.080968543887138367,
4.3399999999999999,-0.10157128423452377,
4.3425000000000002,-0.12520313262939453,
4.3449999999999998,-0.15030145645141602,
4.3475000000000001,-0.19744496047496796,
4.3499999999999996,-0.2154032438993454,
4.3525,-0.2268705815076828,
4.3550000000000004,-0.22999584674835205,
4.3574999999999999,-0.20463308691978455,
4.3600000000000003,-0.17354866862297058,
4.3624999999999998,-0.12897750735282898,
4.3650000000000002,-0.070510908961296082,
4.3674999999999997,0.086666151881217957,
4.3700000000000001,0.18268406391143799,
4.3724999999999996,0.28685173392295837,
4.375,0.39520245790481567,
4.3775000000000004,0.60351371765136719,
4.3799999999999999,0.69130980968475342,
4.3825000000000003,0.75989747047424316,
4.3849999999999998,0.80367529392242432,
4.3875000000000002,0.80194437503814697,
4.3899999999999997,0.75403153896331787,
4.3925000000000001,0.67712587118148804,
4.3949999999999996,0.57593923807144165,
4.3975,0.32880246639251709,
4.4000000000000004,0.19946436583995819,
4.4024999999999999,0.077434584498405457,
4.4050000000000002,-0.030098756775259972,
4.4074999999999998,-0.18201093375682831,
4.4100000000000001,-0.22215864062309265,
4.4124999999999996,-0.23939570784568787,
4.415,-0.23682336509227753,
4.4175000000000004,-0.1906895637512207,
4.4199999999999999,-0.15744149684906006,
4.4225000000000003,-0.12378474324941635,
4.4249999999999998,-0.093469619750976562,
4.4275000000000002,-0.051735244691371918,
4.4299999999999997,-0.041806500405073166,
4.4325000000000001,-0.038464866578578949,
4.4349999999999996,-0.040219824761152267,
4.4375,-0.052095852792263031,
4.4400000000000004,-0.058803163468837738,
4.4424999999999999,-0.064188241958618164,
4.4450000000000003,-0.06748180091381073,
4.4474999999999998,-0.066688463091850281,
4.4500000000000002,-0.063010260462760925,
4.4524999999999997,-0.057913661003112793,
4.4550000000000001,-0.05214393138885498,
4.4574999999999996,-0.041325688362121582,
4.46,-0.037503242492675781,
4.4625000000000004,-0.035171311348676682,
4.4649999999999999,-0.034450095146894455,
4.4675000000000002,-0.036902230232954025,
4.4699999999999998,-0.03921012207865715,
4.4725000000000001,-0.041493974626064301,
4.4749999999999996,-0.043248932808637619,
4.4775,-0.043489336967468262,
4.4800000000000004,-0.041662257164716721,
4.4824999999999999,-0.038705270737409592,
4.4850000000000003,-0.034906864166259766,
4.4874999999999998,-0.026781162247061729,
4.4900000000000002,-0.023367404937744141,
4.4924999999999997,-0.020771026611328125,
4.4950000000000001,-0.019064148887991905,
4.4974999999999996,-0.017621716484427452,
4.5,-0.017068784683942795,
4.5025000000000004,-0.015986960381269455,
4.5049999999999999,-0.013919472694396973,
4.5075000000000003,-0.010625919327139854,
4.5099999999999998,-0.00040868920041248202,
4.5125000000000002,0.0058418512344360352,
4.5149999999999997,0.012116432189941406,
4.5175000000000001,0.017790000885725021,
4.5199999999999996,0.025050243362784386,
4.5225,0.026059946045279503,
4.5250000000000004,0.025314688682556152,
4.5274999999999999,0.020338296890258789,
4.5300000000000002,0.01738131046295166,
4.5324999999999998,0.015049378387629986,
4.5350000000000001,0.013871392235159874,
4.5374999999999996,0.016395648941397667,
4.54,0.020049810409545898,
4.5425000000000004,0.02490600012242794,
4.5449999999999999,0.030507445335388184,
4.5475000000000003,0.042119026184082031,
4.5499999999999998,0.047456026077270508,
4.5525000000000002,0.052408378571271896,
4.5549999999999997,0.057096283882856369,
4.5575000000000001,0.067049071192741394,
4.5599999999999996,0.073011122643947601,
4.5625,0.079886719584465027,
4.5650000000000004,0.087651811540126801,
4.5674999999999999,0.10474463552236557,
4.5700000000000003,0.1131107434630394,
4.5724999999999998,0.1206594705581665,
4.5750000000000002,0.12698213756084442,
4.5774999999999997,0.13522803783416748,
4.5800000000000001,0.13741573691368103,
4.5824999999999996,0.13876199722290039,
4.585,0.13972362875938416,
4.5875000000000004,0.14207959175109863,
4.5899999999999999,0.1437864750623703,
4.5925000000000002,0.14575779438018799,
4.5949999999999998,0.14765700697898865,
4.5975000000000001,0.1497485339641571,
4.5999999999999996,0.14933983981609344,
4.6025,0.14789740741252899,
4.6050000000000004,0.14556547999382019,
4.6074999999999999,0.13984382152557373,
4.6100000000000003,0.13734361529350281,
4.6124999999999998,0.13551652431488037,
4.6150000000000002,0.13436257839202881,
4.6174999999999997,0.13289611041545868,
4.6200000000000001,0.13135752081871033,
4.6224999999999996,0.12828032672405243,
4.625,0.1230875700712204,
4.6275000000000004,0.10512928664684296,
4.6299999999999999,0.09272436797618866,
4.6325000000000003,0.078852973878383636,
4.6349999999999998,0.064476728439331055,
4.6375000000000002,0.038152337074279785,
4.6399999999999997,0.027766823768615723,
4.6425000000000001,0.019737284630537033,
4.6449999999999996,0.013967554084956646,
4.6475,0.0069717569276690483,
4.6500000000000004,0.0041349730454385281,
4.6524999999999999,0.00057697296142578125,
4.6550000000000002,-0.00430325698107481,
4.6574999999999998,-0.018943946808576584,
4.6600000000000001,-0.028319757431745529,
4.6624999999999996,-0.038320623338222504,
4.665,-0.048177242279052734,
4.6675000000000004,-0.057144366204738617,
4.6699999999999999,-0.070102214813232422,
4.6725000000000003,-0.073588095605373383,
4.6749999999999998,-0.075150728225708008,
4.6775000000000002,-0.075078606605529785,
4.6799999999999997,-0.071977376937866211,
4.6825000000000001,-0.069765649735927582,
4.6849999999999996,-0.067553922533988953,
4.6875,-0.065510474145412445,
4.6900000000000004,-0.062072675675153732,
4.6924999999999999,-0.060726404190063477,
4.6950000000000003,-0.059692662209272385,
4.6974999999999998,-0.059091649949550629,
4.7000000000000002,-0.059957109391689301,
4.7024999999999997,-0.061760149896144867,
4.7050000000000001,-0.064548850059509277,
4.7074999999999996,-0.068130895495414734,
4.71,-0.076040230691432953,
4.7125000000000004,-0.079261660575866699,
4.7149999999999999,-0.081281065940856934,
4.7175000000000002,-0.08166571706533432,
4.7199999999999998,-0.07738649845123291,
4.7225000000000001,-0.073419809341430664,
4.7249999999999996,-0.069164633750915527,
4.7275,-0.065438352525234222,
4.7300000000000004,-0.062265001237392426,
4.7324999999999999,-0.06353914737701416,
4.7350000000000003,-0.066496133804321289,
4.7374999999999998,-0.070510908961296082,
4.7400000000000002,-0.077843271195888519,
4.7424999999999997,-0.07921358197927475,
4.7450000000000001,-0.07808367908000946,
4.7474999999999996,-0.074309311807155609,
4.75,-0.060437917709350586,
4.7525000000000004,-0.052336256951093674,
4.7549999999999999,-0.045148134231567383,
4.7575000000000003,-0.04017174243927002,
4.7599999999999998,-0.040364068001508713,
4.7625000000000002,-0.04598955437541008,
4.7649999999999997,-0.054716270416975021,
4.7675000000000001,-0.065390273928642273,
4.7699999999999996,-0.086786352097988129,
4.7725,-0.094527408480644226,
4.7750000000000004,-0.09875854104757309,
4.7774999999999999,-0.098902784287929535,
4.7800000000000002,-0.087627768516540527,
4.7824999999999998,-0.077867314219474792,
4.7850000000000001,-0.067097149789333344,
4.7874999999999996,-0.056807797402143478,
4.79,-0.042768120765686035,
4.7925000000000004,-0.040580432862043381,
4.7949999999999999,-0.041830539703369141,
4.7975000000000003,-0.046013593673706055,
4.7999999999999998,-0.059283971786499023,
4.8025000000000002,-0.066015325486660004,
4.8049999999999997,-0.071376368403434753,
4.8075000000000001,-0.0745977982878685,
4.8099999999999996,-0.073876582086086273,
4.8125,-0.070583030581474304,
4.8150000000000004,-0.066231690347194672,
4.8174999999999999,-0.061736106872558594,
4.8200000000000003,-0.055197082459926605,
4.8224999999999998,-0.05397101491689682,
4.8250000000000002,-0.054067175835371017,
4.8274999999999997,-0.055100917816162109,
4.8300000000000001,-0.05738477036356926,
4.8324999999999996,-0.057312648743391037,
4.835,-0.055822134017944336,
4.8375000000000004,-0.05276898667216301,
4.8399999999999999,-0.043008528649806976,
4.8425000000000002,-0.037358999252319336,
4.8449999999999998,-0.032046042382717133,
4.8475000000000001,-0.027670662850141525,
4.8499999999999996,-0.023391446098685265,
4.8525,-0.023679932579398155,
4.8550000000000004,-0.025386810302734375,
4.8574999999999999,-0.028223594650626183,
4.8600000000000003,-0.035772323608398438,
4.8624999999999998,-0.039907298982143402,
4.8650000000000002,-0.044114392250776291,
4.8674999999999997,-0.048297446221113205,
4.8700000000000001,-0.056687593460083008,
4.8724999999999996,-0.060870647430419922,
4.875,-0.064933501183986664,
4.8775000000000004,-0.068587660789489746,
4.8799999999999999,-0.07351597398519516,
4.8825000000000003,-0.074116989970207214,
4.8849999999999998,-0.073131322860717773,
4.8875000000000002,-0.070462822914123535,
4.8899999999999997,-0.060654282569885254,
4.8925000000000001,-0.054163336753845215,
4.8949999999999996,-0.047287743538618088,
4.8975,-0.040580432862043381,
4.9000000000000004,-0.029617946594953537,
4.9024999999999999,-0.026108026504516602,
4.9050000000000002,-0.024136703461408615,
4.9074999999999998,-0.023655891418457031,
4.9100000000000001,-0.026204189285635948,
4.9124999999999996,-0.028391879051923752,
4.915,-0.030579566955566406,
4.9175000000000004,-0.03231048583984375,
4.9199999999999999,-0.032839380204677582,
4.9225000000000003,-0.031324826180934906,
4.9249999999999998,-0.028704404830932617,
4.9275000000000002,-0.025314688682556152,
4.9299999999999997,-0.018391013145446777,
4.9325000000000001,-0.016155242919921875,
4.9349999999999996,-0.015530189499258995,
4.9375,-0.017044743523001671,
4.9400000000000004,-0.027045607566833496,
4.9424999999999999,-0.035171311348676682,
4.9450000000000003,-0.044643282890319824,
4.9474999999999998,-0.054668188095092773,
4.9500000000000002,-0.072554349899291992,
4.9524999999999997,-0.078684687614440918,
4.9550000000000001,-0.082074403762817383,
4.9574999999999996,-0.08241097629070282,
4.96,-0.074357390403747559,
4.9625000000000004,-0.066832706332206726,
4.9649999999999999,-0.057865582406520844,
4.9675000000000002,-0.048297446221113205,
4.9699999999999998,-0.030291080474853516,
4.9725000000000001,-0.023030837997794151,
4.9749999999999996,-0.01738131046295166,
4.9775,-0.013438662514090538,
4.9800000000000004,-0.010024905204772949,
4.9824999999999999,-0.010024905204772949,
4.9850000000000003,-0.010698040947318077,
4.9874999999999998,-0.011755824089050293,
4.9900000000000002,-0.014400283806025982,
4.9924999999999997,-0.015938878059387207,
4.9950000000000001,-0.017790000885725021,
4.9974999999999996,-0.020242135971784592,
5,-0.027887027710676193,75.313804626464844
5.0025000000000004,-0.03339231014251709,
5.0049999999999999,-0.039931338280439377,
5.0075000000000003,-0.047215621918439865,
5.0099999999999998,-0.061543785035610199,
5.0125000000000002,-0.067025028169155121,
5.0149999999999997,-0.070222422480583191,
5.0175000000000001,-0.070390701293945312,
5.0199999999999996,-0.06000518798828125,
5.0225,-0.04952351376414299,
5.0250000000000004,-0.036205053329467773,
5.0274999999999999,-0.021059513092041016,
5.0300000000000002,0.0099047031253576279,
5.0324999999999998,0.023247202858328819,
5.0350000000000001,0.033801000565290451,
5.0374999999999996,0.040965080261230469,
5.04,0.044571161270141602,
5.0425000000000004,0.041686296463012695,
5.0449999999999999,0.03658970445394516,
5.0475000000000003,0.030074715614318848,
5.0499999999999998,0.015770595520734787,
5.0525000000000002,0.0090873241424560547,
5.0549999999999997,0.0031012296676635742,
5.0575000000000001,-0.0021155676804482937,
5.0599999999999996,-0.006707310676574707,
5.0625,-0.014568567276000977,
5.0650000000000004,-0.018174648284912109,
5.0674999999999999,-0.021732648834586143,
5.0700000000000003,-0.028800567612051964,
5.0724999999999998,-0.032262407243251801,
5.0750000000000002,-0.035652123391628265,
5.0774999999999997,-0.038897596299648285,
5.0800000000000001,-0.044763486832380295,
5.0824999999999996,-0.047167539596557617,
5.085,-0.049018662422895432,
5.0875000000000004,-0.050076447427272797,
5.0899999999999999,-0.048850379884243011,
5.0925000000000002,-0.046205919235944748,
5.0949999999999998,-0.042191147804260254,
5.0975000000000001,-0.03692626953125,
5.0999999999999996,-0.030844014137983322,
5.1025,-0.018703540787100792,
5.1050000000000004,-0.01430412195622921,
5.1074999999999999,-0.012188553810119629,
5.1100000000000003,-0.013174216262996197,
5.1124999999999998,-0.026757121086120605,
5.1150000000000002,-0.039859216660261154,
5.1174999999999997,-0.057024162262678146,
5.1200000000000001,-0.077650949358940125,
5.1224999999999996,-0.12580415606498718,
5.125,-0.15075823664665222,
5.1275000000000004,-0.17424583435058594,
5.1299999999999999,-0.19436776638031006,
5.1325000000000003,-0.2161484956741333,
5.1349999999999998,-0.21335980296134949,
5.1375000000000002,-0.19850274920463562,
5.1399999999999997,-0.16955792903900146,
5.1425000000000001,-0.06394784152507782,
5.1449999999999996,0.013462702743709087,
5.1475,0.10592262446880341,
5.1500000000000004,0.21078746020793915,
5.1524999999999999,0.44035059213638306,
5.1550000000000002,0.55343729257583618,
5.1574999999999998,0.65645098686218262,
5.1600000000000001,0.74258828163146973,
5.1624999999999996,0.84057748317718506,
5.165,0.84456825256347656,
5.1675000000000004,0.81672930717468262,
5.1699999999999999,0.75869542360305786,
5.1725000000000003,0.56959253549575806,
5.1749999999999998,0.4516977071762085,
5.1775000000000002,0.32856208086013794,
5.1799999999999997,0.20797471702098846,
5.1825000000000001,0.00081737840082496405,
5.1849999999999996,-0.076665282249450684,
5.1875,-0.13395389914512634,
5.1900000000000004,-0.17136096954345703,
5.1924999999999999,-0.19537746906280518,
5.1950000000000003,-0.18883845210075378,
5.1974999999999998,-0.17506322264671326,
5.2000000000000002,-0.1575857400894165,
5.2024999999999997,-0.12236635386943817,
5.2050000000000001,-0.10799010843038559,
5.2074999999999996,-0.096618935465812683,
5.21,-0.088156662881374359,
5.2125000000000004,-0.077771149575710297,
5.2149999999999999,-0.074381433427333832,
5.2175000000000002,-0.071328282356262207,
5.2199999999999998,-0.068130895495414734,
5.2225000000000001,-0.060269635170698166,
5.2249999999999996,-0.055437486618757248,
5.2275,-0.050052404403686523,
5.2300000000000004,-0.044162474572658539,
5.2324999999999999,-0.031541191041469574,
5.2350000000000003,-0.025098323822021484,
5.2374999999999998,-0.018895864486694336,
5.2400000000000002,-0.013174216262996197,
5.2424999999999997,-0.0043753786012530327,
5.2450000000000001,-0.0017790000420063734,
5.2474999999999996,-0.00062505406094714999,
5.25,-0.00091354054166004062,
5.2525000000000004,-0.0050725541077554226,
5.2549999999999999,-0.0082218647003173828,
5.2575000000000003,-0.011443297378718853,
5.2599999999999998,-0.014280080795288086,
5.2625000000000002,-0.017357271164655685,
5.2649999999999997,-0.017333230003714561,
5.2675000000000001,-0.016347568482160568,
5.2699999999999996,-0.014736851677298546,
5.2725,-0.011250972747802734,
5.2750000000000004,-0.010048946365714073,
5.2774999999999999,-0.0093998517841100693,
5.2800000000000002,-0.0092796487733721733,
5.2824999999999998,-0.0091594457626342773,
5.2850000000000001,-0.0082218647003173828,
5.2874999999999996,-0.0060582160949707031,
5.29,-0.0023800134658813477,
5.2925000000000004,0.0094719734042882919,
5.2949999999999999,0.016948580741882324,
5.2975000000000003,0.02461751364171505,
5.2999999999999998,0.031781595200300217,
5.3025000000000002,0.042022865265607834,
5.3049999999999997,0.044378839433193207,
5.3075000000000001,0.044931769371032715,
5.3099999999999996,0.044018231332302094,
5.3125,0.040267907083034515,
5.3150000000000004,0.038705270737409592,
5.3174999999999999,0.038056176155805588,
5.3200000000000003,0.038585066795349121,
5.3224999999999998,0.043200850486755371,
5.3250000000000002,0.046758852899074554,
5.3274999999999997,0.050701498985290527,
5.3300000000000001,0.054740309715270996,
5.3324999999999996,0.062577530741691589,
5.335,0.066568255424499512,
5.3375000000000004,0.070919595658779144,
5.3399999999999999,0.075895987451076508,
5.3425000000000002,0.088589392602443695,
5.3449999999999998,0.096210241317749023,
5.3475000000000001,0.10431190580129623,
5.3499999999999996,0.11241357028484344,
5.3525,0.12645325064659119,
5.3550000000000004,0.13150176405906677,
5.3574999999999999,0.13496360182762146,
5.3600000000000003,0.13695895671844482,
5.3624999999999998,0.13813695311546326,
5.3650000000000002,0.1384735107421875,
5.3674999999999997,0.13943514227867126,
5.3700000000000001,0.14147858321666718,
5.3724999999999996,0.14933983981609344,
5.375,0.15479704737663269,
5.3775000000000004,0.16068696975708008,
5.3799999999999999,0.16633650660514832,
5.3825000000000003,0.1745583713054657,
5.3849999999999998,0.17616908252239227,
5.3875000000000002,0.17585656046867371,
5.3899999999999997,0.17366886138916016,
5.3925000000000001,0.16494214534759521,
5.3949999999999996,0.15922050178050995,
5.3975,0.15313825011253357,
5.4000000000000004,0.147055983543396,
5.4024999999999999,0.13532420992851257,
5.4050000000000002,0.12960255146026611,
5.4074999999999998,0.1237366646528244,
5.4100000000000001,0.11743804067373276,
5.4124999999999996,0.10246078670024872,
5.415,0.093373462557792664,
5.4175000000000004,0.083108149468898773,
5.4199999999999999,0.071664854884147644,
5.4225000000000003,0.045749150216579437,
5.4249999999999998,0.031733512878417969,
5.4275000000000002,0.017453432083129883,
5.4299999999999997,0.0032695136032998562,
5.4325000000000001,-0.023102959617972374,
5.4349999999999996,-0.034402012825012207,
5.4375,-0.0438259057700634,
5.4400000000000004,-0.051038067787885666,
5.4424999999999999,-0.058105986565351486,
5.4450000000000003,-0.057985782623291016,
5.4474999999999998,-0.055774055421352386,
5.4500000000000002,-0.051999688148498535,
5.4524999999999997,-0.042431555688381195,
5.4550000000000001,-0.038080215454101562,
5.4574999999999996,-0.034882824867963791,
5.46,-0.033272109925746918,
5.4625000000000004,-0.035459797829389572,
5.4649999999999999,-0.039065878838300705,
5.4675000000000002,-0.043849945068359375,
5.4699999999999998,-0.049379270523786545,
5.4725000000000001,-0.060654282569885254,
5.4749999999999996,-0.065558552742004395,
5.4775,-0.069549284875392914,
5.4800000000000004,-0.072458192706108093,
5.4824999999999999,-0.074669919908046722,
5.4850000000000003,-0.073900625109672546,
5.4874999999999998,-0.071953341364860535,
5.4900000000000002,-0.06890019029378891,
5.4924999999999997,-0.060221552848815918,
5.4950000000000001,-0.055245161056518555,
5.4974999999999996,-0.050461094826459885,
5.5,-0.046350162476301193,
5.5025000000000004,-0.042119026184082031,
5.5049999999999999,-0.042551755905151367,
5.5075000000000003,-0.04473944753408432,
5.5099999999999998,-0.048297446221113205,
5.5125000000000002,-0.057072244584560394,
5.5149999999999997,-0.060726404190063477,
5.5175000000000001,-0.062841974198818207,
5.5199999999999996,-0.062938138842582703,
5.5225,-0.056663554161787033,
5.5250000000000004,-0.051062107086181641,
5.5274999999999999,-0.044835608452558517,
5.5300000000000002,-0.038969717919826508,
5.5324999999999998,-0.032190285623073578,
5.5350000000000001,-0.032598972320556641,
5.5374999999999996,-0.035748284310102463,
5.54,-0.041325688362121582,
5.5425000000000004,-0.05642315000295639,
5.5449999999999999,-0.063851676881313324,
5.5475000000000003,-0.069765649735927582,
5.5499999999999998,-0.073299609124660492,
5.5525000000000002,-0.071712933480739594,
5.5549999999999997,-0.066880784928798676,
5.5575000000000001,-0.060197513550519943,
5.5599999999999996,-0.052552621811628342,
5.5625,-0.038657188415527344,
5.5650000000000004,-0.034113526344299316,
5.5674999999999999,-0.031925838440656662,
5.5700000000000003,-0.032214324921369553,
5.5724999999999998,-0.03892163559794426,
5.5750000000000002,-0.044186513870954514,
5.5774999999999997,-0.049715839326381683,
5.5800000000000001,-0.054788392037153244,
5.5824999999999996,-0.061639945954084396,
5.585,-0.062914095818996429,
5.5875000000000004,-0.062721773982048035,
5.5899999999999999,-0.061279337853193283,
5.5925000000000002,-0.055677890777587891,
5.5949999999999998,-0.052047770470380783,
5.5975000000000001,-0.048129163682460785,
5.5999999999999996,-0.044066309928894043,
5.6025,-0.035964649170637131,
5.6050000000000004,-0.032190285623073578,
5.6074999999999999,-0.028872689232230186,
5.6100000000000003,-0.026252269744873047,
5.6124999999999998,-0.024232864379882812,
5.6150000000000002,-0.025290649384260178,
5.6174999999999997,-0.027911067008972168,
5.6200000000000001,-0.032021999359130859,
5.6224999999999996,-0.043609540909528732,
5.625,-0.050172608345746994,
5.6275000000000004,-0.056543350219726562,
5.6299999999999999,-0.062072675675153732,
5.6325000000000003,-0.068779990077018738,
5.6349999999999998,-0.069405041635036469,
5.6375000000000002,-0.068106852471828461,
5.6399999999999997,-0.065053701400756836,
5.6425000000000001,-0.055245161056518555,
5.6449999999999996,-0.049379270523786545,
5.6475,-0.043561458587646484,
5.6500000000000004,-0.038176380097866058,
5.6524999999999999,-0.029834311455488205,
5.6550000000000002,-0.027141770347952843,
5.6574999999999998,-0.025410851463675499,
5.6600000000000001,-0.024545392021536827,
5.6624999999999996,-0.024473270401358604,
5.665,-0.026276310905814171,
5.6675000000000004,-0.028079351410269737,
5.6699999999999999,-0.030459364876151085,
5.6725000000000003,-0.033416353166103363,
5.6749999999999998,-0.040700636804103851,
5.6775000000000002,-0.044691365212202072,
5.6799999999999997,-0.048513811081647873,
5.6825000000000001,-0.051783323287963867,
5.6849999999999996,-0.055100917816162109,
5.6875,-0.054499905556440353,
5.6900000000000004,-0.052240096032619476,
5.6924999999999999,-0.048345528542995453,
5.6950000000000003,-0.037022434175014496,
5.6974999999999998,-0.030675729736685753,
5.7000000000000002,-0.024761756882071495,
5.7024999999999997,-0.019953649491071701,
5.7050000000000001,-0.015746554359793663,
5.7074999999999996,-0.016948580741882324,
5.71,-0.020410418510437012,
5.7125000000000004,-0.025819540023803711,
5.7149999999999999,-0.040147703140974045,
5.7175000000000002,-0.047624312341213226,
5.7199999999999998,-0.054235458374023438,
5.7225000000000001,-0.059259932488203049,
5.7249999999999996,-0.062553487718105316,
5.7275,-0.060389839112758636,
5.7300000000000004,-0.055846177041530609,
5.7324999999999999,-0.04935523122549057,
5.7350000000000003,-0.033248066902160645,
5.7374999999999998,-0.025170445442199707,
5.7400000000000002,-0.018102526664733887,
5.7424999999999997,-0.012645324692130089,
5.7450000000000001,-0.0082218647003173828,
5.7474999999999996,-0.0095200538635253906,
5.75,-0.012957851402461529,
5.7525000000000004,-0.018198689445853233,
5.7549999999999999,-0.032118164002895355,
5.7575000000000003,-0.039642851799726486,
5.7599999999999998,-0.046758852899074554,
5.7625000000000002,-0.052865147590637207,
5.7649999999999997,-0.060149431228637695,
5.7675000000000001,-0.060606203973293304,
5.7699999999999996,-0.05875508114695549,
5.7725,-0.054620109498500824,
5.7750000000000004,-0.040820837020874023,
5.7774999999999999,-0.032190285623073578,
5.7800000000000002,-0.023271244019269943,
5.7824999999999998,-0.014760891906917095,
5.7850000000000001,-0.0013222297420725226,
5.7874999999999996,0.0028608243446797132,
5.79,0.0052408380433917046,
5.7925000000000004,0.0059620542451739311,
5.7949999999999999,0.0039426488801836967,
5.7975000000000003,0.0021155676804482937,
5.7999999999999998,0.00024040541029535234,
5.8025000000000002,-0.0013943513622507453,
5.8049999999999997,-0.0036782026290893555,
5.8075000000000001,-0.0045917434617877007,
5.8099999999999996,-0.0056735677644610405,
5.8125,-0.0071640810929238796,
5.8150000000000004,-0.011996230110526085,
5.8174999999999999,-0.015361905097961426,
5.8200000000000003,-0.019088190048933029,
5.8224999999999998,-0.022814473137259483,
5.8250000000000002,-0.028560161590576172,
5.8274999999999997,-0.029641985893249512,
5.8300000000000001,-0.028992891311645508,
5.8324999999999996,-0.02644459530711174,
5.835,-0.015482108108699322,
5.8375000000000004,-0.0075727701187133789,
5.8399999999999999,0.0013222297420725226,
5.8425000000000002,0.010529756546020508,
5.8449999999999998,0.026805203408002853,
5.8475000000000001,0.032406650483608246,
5.8499999999999996,0.035435758531093597,
5.8525,0.035580001771450043,
5.8550000000000004,0.026973485946655273,
5.8574999999999999,0.018847784027457237,
5.8600000000000003,0.0089671220630407333,
5.8624999999999998,-0.0018751621246337891,
5.8650000000000002,-0.023102959617972374,
5.8674999999999997,-0.032094120979309082,
5.8700000000000001,-0.039402447640895844,
5.8724999999999996,-0.044835608452558517,
5.875,-0.050677459686994553,
5.8775000000000004,-0.051735244691371918,
5.8799999999999999,-0.052047770470380783,
5.8825000000000003,-0.051999688148498535,
5.8849999999999998,-0.051350593566894531,
5.8875000000000002,-0.050701498985290527,
5.8899999999999997,-0.049595635384321213,
5.8925000000000001,-0.047888755798339844,
5.8949999999999996,-0.04245559498667717,
5.8975,-0.03921012207865715,
5.9000000000000004,-0.036421418190002441,
5.9024999999999999,-0.034954946488142014,
5.9050000000000002,-0.04012366384267807,
5.9074999999999998,-0.048634015023708344,
5.9100000000000001,-0.061856310814619064,
5.9124999999999996,-0.079766511917114258,
5.915,-0.12623688578605652,
5.9175000000000004,-0.15147945284843445,
5.9199999999999999,-0.17482280731201172,
5.9225000000000003,-0.19335806369781494,
5.9249999999999998,-0.20347914099693298,
5.9275000000000002,-0.1892952173948288,
5.9299999999999997,-0.15919646620750427,
5.9325000000000001,-0.11178851127624512,
5.9349999999999996,0.035003028810024261,
5.9375,0.13140559196472168,
5.9400000000000004,0.23903509974479675,
5.9424999999999999,0.35325169563293457,
5.9450000000000003,0.57815098762512207,
5.9474999999999998,0.67587578296661377,
5.9500000000000002,0.75518548488616943,
5.9524999999999997,0.81055086851119995,
5.9550000000000001,0.83435100317001343,
5.9574999999999996,0.80011725425720215,
5.96,0.73698681592941284,
5.9625000000000004,0.64909458160400391,
5.9649999999999999,0.42393088340759277,
5.9675000000000002,0.3015645444393158,
5.9699999999999998,0.18282830715179443,
5.9725000000000001,0.074453555047512054,
5.9749999999999996,-0.091882944107055664,
5.9775,-0.14494042098522186,
5.9800000000000004,-0.17785191535949707,
5.9824999999999999,-0.19270896911621094,
5.9850000000000003,-0.18186669051647186,
5.9874999999999998,-0.16412477195262909,
5.9900000000000002,-0.1432335376739502,
5.9924999999999997,-0.12227018922567368,
5.9950000000000001,-0.088036462664604187,
5.9974999999999996,-0.076593160629272461,
6,-0.06890019029378891,76.086959838867188
6.0025000000000004,-0.064404606819152832,
6.0049999999999999,-0.061495702713727951,
6.0075000000000003,-0.061399541795253754,
6.0099999999999998,-0.061327420175075531,
6.0125000000000002,-0.06075044721364975,
6.0149999999999997,-0.057072244584560394,
6.0175000000000001,-0.053754650056362152,
6.0199999999999996,-0.049475431442260742,
6.0225,-0.044354796409606934,
6.0250000000000004,-0.032647054642438889,
6.0274999999999999,-0.026757121086120605,
6.0300000000000002,-0.021420121192932129,
6.0324999999999998,-0.017020702362060547,
6.0350000000000001,-0.012404918670654297,
6.0374999999999996,-0.012428959831595421,
6.04,-0.013871392235159874,
6.0425000000000004,-0.016371607780456543,
6.0449999999999999,-0.02245386503636837,
6.0475000000000003,-0.024930041283369064,
6.0499999999999998,-0.026396512985229492,
6.0525000000000002,-0.02661287784576416,
6.0549999999999997,-0.023247202858328819,
6.0575000000000001,-0.020194053649902344,
6.0599999999999996,-0.016732215881347656,
6.0625,-0.013294419273734093,
6.0650000000000004,-0.0075487298890948296,
6.0674999999999999,-0.0053850812837481499,
6.0700000000000003,-0.0035339593887329102,
6.0724999999999998,-0.0017068784218281507,
6.0750000000000002,0.00040868920041248202,
6.0774999999999997,0.0064188241958618164,
6.0800000000000001,0.010433594696223736,
6.0824999999999996,0.01492917537689209,
6.085,0.02399246022105217,
6.0875000000000004,0.027814906090497971,
6.0899999999999999,0.030723810195922852,
6.0925000000000002,0.032623015344142914,
6.0949999999999998,0.033704839646816254,
6.0975000000000001,0.033416353166103363,
6.0999999999999996,0.03305574506521225,
6.1025,0.032959580421447754,
6.1050000000000004,0.03430585190653801,
6.1074999999999999,0.035772323608398438,
6.1100000000000003,0.037599407136440277,
6.1124999999999998,0.039570730179548264,
6.1150000000000002,0.043321054428815842,
6.1174999999999997,0.04507601261138916,
6.1200000000000001,0.047047339379787445,
6.1224999999999996,0.049571596086025238,
6.125,0.05784153938293457,
6.1275000000000004,0.064260363578796387,
6.1299999999999999,0.072241827845573425,
6.1325000000000003,0.081641674041748047,
6.1349999999999998,0.10241270065307617,
6.1375000000000002,0.1123654842376709,
6.1399999999999997,0.12106816470623016,
6.1425000000000001,0.12794375419616699,
6.1449999999999996,0.13549248874187469,
6.1475,0.13667047023773193,
6.1500000000000004,0.13686279952526093,
6.1524999999999999,0.13693492114543915,
6.1550000000000002,0.13979575037956238,
6.1574999999999998,0.14364223182201385,
6.1600000000000001,0.14921963214874268,
6.1624999999999996,0.15614330768585205,
6.165,0.17102441191673279,
6.1675000000000004,0.17703454196453094,
6.1699999999999999,0.18090507388114929,
6.1725000000000003,0.18193881213665009,
6.1749999999999998,0.17482280731201172,
6.1775000000000002,0.16729812324047089,
6.1799999999999997,0.15804252028465271,
6.1825000000000001,0.14801761507987976,
6.1849999999999996,0.129241943359375,
6.1875,0.12178938090801239,
6.1900000000000004,0.11594752967357635,
6.1924999999999999,0.11157214641571045,
6.1950000000000003,0.10500907897949219,
6.1974999999999998,0.10137896239757538,
6.2000000000000002,0.096522770822048187,
6.2024999999999997,0.089935660362243652,
6.2050000000000001,0.070751309394836426,
6.2074999999999996,0.058538716286420822,
6.21,0.045292377471923828,
6.2125000000000004,0.031805634498596191,
6.2149999999999999,0.0072602434083819389,
6.2175000000000002,-0.0024280946236103773,
6.2199999999999998,-0.0099047031253576279,
6.2225000000000001,-0.015121500007808208,
6.2249999999999996,-0.020145973190665245,
6.2275,-0.021203756332397461,
6.2300000000000004,-0.022237500175833702,
6.2324999999999999,-0.023896297439932823,
6.2350000000000003,-0.030844014137983322,
6.2374999999999998,-0.036277174949645996,
6.2400000000000002,-0.04262387752532959,
6.2424999999999997,-0.049307148903608322,
6.2450000000000001,-0.060798525810241699,
6.2474999999999996,-0.064332485198974609,
6.25,-0.065919160842895508,
6.2525000000000004,-0.065534517168998718,
6.2549999999999999,-0.063515111804008484,
6.2575000000000003,-0.057096283882856369,
6.2599999999999998,-0.054259501397609711,
6.2625000000000002,-0.052648782730102539,
6.2649999999999997,-0.05276898667216301,
6.2675000000000001,-0.058562755584716797,
6.2699999999999996,-0.063587233424186707,
6.2725,-0.069188676774501801,
6.2750000000000004,-0.074525676667690277,
6.2774999999999999,-0.081593595445156097,
6.2800000000000002,-0.082386933267116547,
6.2824999999999998,-0.081160865724086761,
6.2850000000000001,-0.078179836273193359,
6.2874999999999996,-0.069068476557731628,
6.29,-0.06423632800579071,
6.2925000000000004,-0.060029231011867523,
6.2949999999999999,-0.056928001344203949,
6.2975000000000003,-0.054812431335449219,
6.2999999999999998,-0.055774055421352386,
6.3025000000000002,-0.057769417762756348,
6.3049999999999997,-0.060486000031232834,
6.3075000000000001,-0.066544219851493835,
6.3099999999999996,-0.069188676774501801,
6.3125,-0.071184039115905762,
6.3150000000000004,-0.072313949465751648,
6.3174999999999999,-0.071184039115905762,
6.3200000000000003,-0.068804025650024414,
6.3224999999999998,-0.065246030688285828,
6.3250000000000002,-0.060726404190063477,
6.3274999999999997,-0.050220690667629242,
6.3300000000000001,-0.045172177255153656,
6.3324999999999996,-0.040965080261230469,
6.335,-0.038104258477687836,
6.3375000000000004,-0.037695568054914474,
6.3399999999999999,-0.040340028703212738,
6.3425000000000002,-0.044595204293727875,
6.3449999999999998,-0.050076447427272797,
6.3475000000000001,-0.062385201454162598,
6.3499999999999996,-0.068010687828063965,
6.3525,-0.072578392922878265,
6.3550000000000004,-0.075775787234306335,
6.3574999999999999,-0.077626906335353851,
6.3600000000000003,-0.076472960412502289,
6.3624999999999998,-0.074237190186977386,
6.3650000000000002,-0.071232125163078308,
6.3674999999999997,-0.064116120338439941,
6.3700000000000001,-0.060437917709350586,
6.3724999999999996,-0.056903958320617676,
6.375,-0.053538285195827484,
6.3775000000000004,-0.047552190721035004,
6.3799999999999999,-0.044955812394618988,
6.3825000000000003,-0.042599838227033615,
6.3849999999999998,-0.040580432862043381,
6.3875000000000002,-0.037695568054914474,
6.3899999999999997,-0.03692626953125,
6.3925000000000001,-0.036685865372419357,
6.3949999999999996,-0.03692626953125,
6.3975,-0.038873553276062012,
6.4000000000000004,-0.040436189621686935,
6.4024999999999999,-0.042215190827846527,
6.4050000000000002,-0.044138431549072266,
6.4074999999999998,-0.047600269317626953,
6.4100000000000001,-0.048874419182538986,
6.4124999999999996,-0.04969179630279541,
6.415,-0.049932204186916351,
6.4175000000000004,-0.048730175942182541,
6.4199999999999999,-0.047383904457092285,
6.4225000000000003,-0.045725107192993164,
6.4249999999999998,-0.043873988091945648,
6.4275000000000002,-0.04029194638133049,
6.4299999999999997,-0.038849513977766037,
6.4325000000000001,-0.037791728973388672,
6.4349999999999996,-0.037142634391784668,
6.4375,-0.037286877632141113,
6.4400000000000004,-0.03796001523733139,
6.4424999999999999,-0.038945674896240234,
6.4450000000000003,-0.040147703140974045,
6.4474999999999998,-0.042503677308559418,
6.4500000000000002,-0.043297015130519867,
6.4524999999999997,-0.043561458587646484,
6.4550000000000001,-0.043200850486755371,
6.4574999999999996,-0.040436189621686935,
6.46,-0.038224458694458008,
6.4625000000000004,-0.035820405930280685,
6.4649999999999999,-0.033560596406459808,
6.4675000000000002,-0.031204622238874435,
6.4699999999999998,-0.031709473580121994,
6.4725000000000001,-0.033560596406459808,
6.4749999999999996,-0.036565661430358887,
6.4775,-0.044619243592023849,
6.4800000000000004,-0.048465728759765625,
6.4824999999999999,-0.051350593566894531,
6.4850000000000003,-0.052720904350280762,
6.4874999999999998,-0.050004325807094574,
6.4900000000000002,-0.046085715293884277,
6.4924999999999997,-0.041037201881408691,
6.4950000000000001,-0.035531919449567795,
6.4974999999999996,-0.025891661643981934,
6.5,-0.022886594757437706,
6.5025000000000004,-0.021396081894636154,
6.5049999999999999,-0.02137204073369503,
6.5075000000000003,-0.024136703461408615,
6.5099999999999998,-0.025771459564566612,
6.5125000000000002,-0.026829242706298828,
6.5149999999999997,-0.026877325028181076,
6.5175000000000001,-0.023487608879804611,
6.5199999999999996,-0.02045850083231926,
6.5225,-0.017237067222595215,
6.5250000000000004,-0.014424324035644531,
6.5274999999999999,-0.012573203071951866,
6.5300000000000002,-0.014472405426204205,
6.5324999999999998,-0.018535256385803223,
6.5350000000000001,-0.024545392021536827,
6.5374999999999996,-0.040508311241865158,
6.54,-0.048850379884243011,
6.5425000000000004,-0.056158702820539474,
6.5449999999999999,-0.061471663415431976,
6.5475000000000003,-0.062890052795410156,
6.5499999999999998,-0.058057904243469238,
6.5525000000000002,-0.049475431442260742,
6.5549999999999997,-0.037551324814558029,
6.5575000000000001,-0.0073804459534585476,
6.5599999999999996,0.0083661079406738281,
6.5625,0.022622149437665939,
6.5650000000000004,0.034041404724121094,
6.5674999999999999,0.044210553169250488,
6.5700000000000003,0.041926704347133636,
6.5724999999999998,0.034930907189846039,
6.5750000000000002,0.02399246022105217,
6.5774999999999997,-0.0046398243866860867,
6.5800000000000001,-0.019304554909467697,
6.5824999999999996,-0.032238364219665527,
6.585,-0.042191147804260254,
6.5875000000000004,-0.050629377365112305,
6.5899999999999999,-0.049042701721191406,
6.5925000000000002,-0.044282674789428711,
6.5949999999999998,-0.037358999252319336,
6.5975000000000001,-0.021684568375349045,
6.5999999999999996,-0.015313824638724327,
6.6025,-0.011106729507446289,
6.6050000000000004,-0.0097123784944415092,
6.6074999999999999,-0.011323094367980957,
6.6100000000000003,-0.022718310356140137,
6.6124999999999998,-0.031300783157348633,
6.6150000000000002,-0.040628515183925629,
6.6174999999999997,-0.049619674682617188,
6.6200000000000001,-0.062577530741691589,
6.6224999999999996,-0.064909458160400391,
6.625,-0.063875719904899597,
6.6275000000000004,-0.05260070413351059,
6.6299999999999999,-0.044018231332302094,
6.6325000000000003,-0.035315554589033127,
6.6349999999999998,-0.028271675109863281,
6.6375000000000002,-0.02632439136505127,
6.6399999999999997,-0.034329891204833984,
6.6425000000000001,-0.049307148903608322,
6.6449999999999996,-0.070991717278957367,
6.6475,-0.12900154292583466,
6.6500000000000004,-0.16054272651672363,
6.6524999999999999,-0.18958370387554169,
6.6550000000000002,-0.21259050071239471,
6.6574999999999998,-0.22720715403556824,
6.6600000000000001,-0.21333575248718262,
6.6624999999999996,-0.18297255039215088,
6.665,-0.13546845316886902,
6.6675000000000004,0.0082699460908770561,
6.6699999999999999,0.10060966014862061,
6.6725000000000003,0.20239731669425964,
6.6749999999999998,0.30942580103874207,
6.6775000000000002,0.41674277186393738,
6.6799999999999997,0.61089420318603516,
6.6825000000000001,0.68683826923370361,
6.6849999999999996,0.74217957258224487,
6.6875,0.77311974763870239,
6.6900000000000004,0.75369501113891602,
6.6924999999999999,0.70359450578689575,
6.6950000000000003,0.62981408834457397,
6.6974999999999998,0.43049395084381104,
6.7000000000000002,0.31740725040435791,
6.7024999999999997,0.20439267158508301,
6.7050000000000001,0.097893081605434418,
6.7074999999999996,0.0034137568436563015,
6.71,-0.13481935858726501,
6.7125000000000004,-0.1753036230802536,
6.7149999999999999,-0.19725263118743896,
6.7175000000000002,-0.20285408198833466,
6.7199999999999998,-0.17794808745384216,
6.7225000000000001,-0.15472492575645447,
6.7249999999999996,-0.1290496289730072,
6.7275,-0.1037830114364624,
6.7300000000000004,-0.062361162155866623,
6.7324999999999999,-0.04827340692281723,
6.7350000000000003,-0.038897596299648285,
6.7374999999999998,-0.033825039863586426,
6.7400000000000002,-0.033801000565290451,
6.7424999999999997,-0.037214756011962891,
6.7450000000000001,-0.041854582726955414,
6.7474999999999996,-0.047047339379787445,
6.75,-0.056831836700439453,
6.7525000000000004,-0.060461960732936859,
6.7549999999999999,-0.062769852578639984,
6.7575000000000003,-0.063418947160243988,
6.7599999999999998,-0.059043567627668381,
6.7625000000000002,-0.053995054215192795,
6.7649999999999997,-0.047311782836914062,
6.7675000000000001,-0.039402447640895844,
6.7699999999999996,-0.022045176476240158,
6.7725,-0.01384735107421875,
6.7750000000000004,-0.0066832704469561577,
6.7774999999999999,-0.00093758106231689453,
6.7800000000000002,0.0059860944747924805,
6.7824999999999998,0.0075487298890948296,
6.7850000000000001,0.0083661079406738281,
6.7874999999999996,0.0089671220630407333,
6.79,0.011106729507446289,
6.7925000000000004,0.013078054413199425,
6.7949999999999999,0.015578269958496094,
6.7975000000000003,0.018270811066031456,
6.7999999999999998,0.022357702255249023,
6.8025000000000002,0.022790431976318359,
6.8049999999999997,0.021732648834586143,
6.8075000000000001,0.019184350967407227,
6.8099999999999996,0.010746121406555176,
6.8125,0.0060822567902505398,
6.8150000000000004,0.002043446060270071,
6.8174999999999999,-0.00064909458160400391,
6.8200000000000003,-4.8081081331474707e-05,
6.8224999999999998,0.0034618377685546875,
6.8250000000000002,0.0088469190523028374,
6.8274999999999997,0.015554229728877544,
6.8300000000000001,0.030411284416913986,
6.8324999999999996,0.037431120872497559,
6.835,0.04365762323141098,
6.8375000000000004,0.048970580101013184,
6.8399999999999999,0.057288609445095062,
6.8425000000000002,0.060726404190063477,
6.8449999999999998,0.063971877098083496,
6.8475000000000001,0.067097149789333344,
6.8499999999999996,0.072578392922878265,
6.8525,0.0745977982878685,
6.8550000000000004,0.075895987451076508,
6.8574999999999999,0.076497003436088562,
6.8600000000000003,0.076905690133571625,
6.8624999999999998,0.077915392816066742,
6.8650000000000002,0.080535814166069031,
6.8674999999999997,0.08553624153137207,
6.8700000000000001,0.10443210601806641,
6.8724999999999996,0.11811117827892303,
6.875,0.13356924057006836,
6.8775000000000004,0.14953216910362244,
6.8799999999999999,0.17652969062328339,
6.8825000000000003,0.18465539813041687,
6.8849999999999998,0.18790087103843689,
6.8875000000000002,0.18609783053398132,
6.8899999999999997,0.17042338848114014,
6.8925000000000001,0.15958110988140106,
6.8949999999999996,0.14931580424308777,
6.8975,0.14150261878967285,
6.9000000000000004,0.13854563236236572,
6.9024999999999999,0.14417111873626709,
6.9050000000000002,0.15371522307395935,
6.9074999999999998,0.16563932597637177,
6.9100000000000001,0.18871824443340302,
6.9124999999999996,0.19588232040405273,
6.915,0.19814214110374451,
6.9175000000000004,0.19484858214855194,
6.9199999999999999,0.17287552356719971,
6.9225000000000003,0.15657603740692139,
6.9249999999999998,0.13900241255760193,
6.9275000000000002,0.12198170274496078,
6.9299999999999997,0.095344781875610352,
6.9325000000000001,0.087219081819057465,
6.9349999999999996,0.082483097910881042,
6.9375,0.080367527902126312,
6.9400000000000004,0.079045295715332031,
6.9424999999999999,0.077242255210876465,
6.9450000000000003,0.073251530528068542,
6.9474999999999998,0.066520176827907562,
6.9500000000000002,0.04507601261138916,
6.9524999999999997,0.031589269638061523,
6.9550000000000001,0.017573636025190353,
6.9574999999999996,0.0041349730454385281,
6.96,-0.0076929731294512749,
6.9625000000000004,-0.023920338600873947,
6.9649999999999999,-0.027959149330854416,
6.9675000000000002,-0.029617946594953537,
6.9699999999999998,-0.028536122292280197,
6.9725000000000001,-0.027454297989606857,
6.9749999999999996,-0.02706964872777462,
6.9775,-0.027911067008972168,
6.9800000000000004,-0.033993326127529144,
6.9824999999999999,-0.03892163559794426,
6.9850000000000003,-0.044475000351667404,
6.9874999999999998,-0.050004325807094574,
6.9900000000000002,-0.058298312127590179,
6.9924999999999997,-0.060101352632045746,
6.9950000000000001,-0.059957109391689301,
6.9974999999999996,-0.058009825646877289,
7,-0.049980282783508301,76.923080444335938
7.0025000000000004,-0.045003890991210938,
7.0049999999999999,-0.040219824761152267,
7.0075000000000003,-0.036181014031171799,
7.0099999999999998,-0.031733512878417969,
7.0125000000000002,-0.031517148017883301,
7.0149999999999997,-0.032454729080200195,
7.0175000000000001,-0.034209690988063812,
7.0199999999999996,-0.038464866578578949,
7.0225,-0.040219824761152267,
7.0250000000000004,-0.04137377068400383,
7.0274999999999999,-0.041854582726955414,
7.0300000000000002,-0.041061244904994965,
7.0324999999999998,-0.04017174243927002,
7.0350000000000001,-0.039282243698835373,
7.0374999999999996,-0.038561027497053146,
7.04,-0.037935972213745117,
7.0425000000000004,-0.03796001523733139,
7.0449999999999999,-0.038032136857509613,
7.0475000000000003,-0.03800809383392334,
7.0499999999999998,-0.037142634391784668,
7.0525000000000002,-0.036253135651350021,
7.0549999999999997,-0.035219393670558929,
7.0575000000000001,-0.034233730286359787,
7.0599999999999996,-0.033584635704755783,
7.0625,-0.034402012825012207,
7.0650000000000004,-0.036229096353054047,
7.0674999999999999,-0.039065878838300705,
7.0700000000000003,-0.046951174736022949,
7.0724999999999998,-0.051326554268598557,
7.0750000000000002,-0.055389404296875,
7.0774999999999997,-0.058658920228481293,
7.0800000000000001,-0.061255298554897308,
7.0824999999999996,-0.060173474252223969,
7.085,-0.05750497430562973,
7.0875000000000004,-0.053394041955471039,
7.0899999999999999,-0.042383473366498947,
7.0925000000000002,-0.036301217973232269,
7.0949999999999998,-0.030435323715209961,
7.0975000000000001,-0.025146406143903732,
7.0999999999999996,-0.017068784683942795,
7.1025,-0.014448365196585655,
7.1050000000000004,-0.012669364921748638,
7.1074999999999999,-0.011587540619075298,
7.1100000000000003,-0.010890364646911621,
7.1124999999999998,-0.010962486267089844,
7.1150000000000002,-0.011202892288565636,
7.1174999999999997,-0.011491378769278526,
7.1200000000000001,-0.012284716591238976,
7.1224999999999996,-0.012789567932486534,
7.125,-0.013342499732971191,
7.1275000000000004,-0.013943513855338097,
7.1299999999999999,-0.014568567276000977,
7.1325000000000003,-0.01567443273961544,
7.1349999999999998,-0.0161312036216259,
7.1375000000000002,-0.016491811722517014,
7.1399999999999997,-0.01675625704228878,
7.1425000000000001,-0.017140906304121017,
7.1449999999999996,-0.017237067222595215,
7.1475,-0.017285149544477463,
7.1500000000000004,-0.017261108383536339,
7.1524999999999999,-0.016948580741882324,
7.1550000000000002,-0.016684135422110558,
7.1574999999999998,-0.016395648941397667,
7.1600000000000001,-0.016155242919921875,
7.1624999999999996,-0.016179284080862999,
7.165,-0.016515851020812988,
7.1675000000000004,-0.017044743523001671,
7.1699999999999999,-0.017621716484427452,
7.1725000000000003,-0.018054446205496788,
7.1749999999999998,-0.017309188842773438,
7.1775000000000002,-0.015602311119437218,
7.1799999999999997,-0.012741486541926861,
7.1825000000000001,-0.0039666891098022461,
7.1849999999999996,0.0013943513622507453,
7.1875,0.0066832704469561577,
7.1900000000000004,0.011347135528922081,
7.1924999999999999,0.01646777056157589,
7.1950000000000003,0.016203325241804123,
7.1974999999999998,0.013943513855338097,
7.2000000000000002,0.0099287433549761772,
7.2024999999999997,-0.0012260675430297852,
7.2050000000000001,-0.0070198378525674343,
7.2074999999999996,-0.012020270340144634,
7.21,-0.01567443273961544,
7.2125000000000004,-0.017621716484427452,
7.2149999999999999,-0.01584271714091301,
7.2175000000000002,-0.01247704029083252,
7.2199999999999998,-0.0079574193805456161,
7.2225000000000001,0.0027406215667724609,
7.2249999999999996,0.0080054998397827148,
7.2275,0.012645324692130089,
7.2300000000000004,0.016371607780456543,
7.2324999999999999,0.019905567169189453,
7.2350000000000003,0.019304554909467697,
7.2374999999999998,0.016924541443586349,
7.2400000000000002,0.012789567932486534,
7.2424999999999997,-0.00026444596005603671,
7.2450000000000001,-0.0084863109514117241,
7.2474999999999996,-0.017020702362060547,
7.25,-0.025122364982962608,
7.2525000000000004,-0.036421418190002441,
7.2549999999999999,-0.03812829777598381,
7.2575000000000003,-0.036541622132062912,
7.2599999999999998,-0.031613312661647797,
7.2625000000000002,-0.013655027374625206,
7.2649999999999997,-0.002524256706237793,
7.2675000000000001,0.0084141893312335014,
7.2699999999999996,0.01783808134496212,
7.2725,0.02815147303044796,
7.2750000000000004,0.028127431869506836,
7.2774999999999999,0.02490600012242794,
7.2800000000000002,0.019328594207763672,
7.2824999999999998,0.0059620542451739311,
7.2850000000000001,0.00084141892148181796,
7.2874999999999996,-0.0017790000420063734,
7.29,-0.0013462703209370375,
7.2925000000000004,0.0081497430801391602,
7.2949999999999999,0.015650391578674316,
7.2975000000000003,0.023391446098685265,
7.2999999999999998,0.030050676316022873,
7.3025000000000002,0.035748284310102463,
7.3049999999999997,0.033656757324934006,
7.3075000000000001,0.028415918350219727,
7.3099999999999996,0.020819108933210373,
7.3125,0.0032695136032998562,
7.3150000000000004,-0.0040388107299804688,
7.3174999999999999,-0.0087988376617431641,
7.3200000000000003,-0.01028935145586729,
7.3224999999999998,-0.0029329459648579359,
7.3250000000000002,0.0050725541077554226,
7.3274999999999997,0.014760891906917095,
7.3300000000000001,0.02507428452372551,
7.3324999999999996,0.043321054428815842,
7.335,0.049643717706203461,
7.3375000000000004,0.053562324494123459,
7.3399999999999999,0.054980717599391937,
7.3425000000000002,0.051470797508955002,
7.3449999999999998,0.047407947480678558,
7.3475000000000001,0.042551755905151367,
7.3499999999999996,0.037310920655727386,
7.3525,0.027141770347952843,
7.3550000000000004,0.022622149437665939,
7.3574999999999999,0.018607378005981445,
7.3600000000000003,0.015073418617248535,
7.3624999999999998,0.0091113653033971786,
7.3650000000000002,0.0063707432709634304,
7.3674999999999997,0.0035099189262837172,
7.3700000000000001,0.00036060810089111328,
7.3724999999999996,-0.0073083243332803249,
7.375,-0.011755824089050293,
7.3775000000000004,-0.016323527321219444,
7.3799999999999999,-0.020554661750793457,
7.3825000000000003,-0.02569933794438839,
7.3849999999999998,-0.025458931922912598,
7.3875000000000002,-0.022886594757437706,
7.3899999999999997,-0.018078487366437912,
7.3925000000000001,-0.0043272972106933594,
7.3949999999999996,0.0021636486053466797,
7.3975,0.0062024593353271484,
7.4000000000000004,0.0060822567902505398,
7.4024999999999999,-0.012188553810119629,
7.4050000000000002,-0.031517148017883301,
7.4074999999999998,-0.057024162262678146,
7.4100000000000001,-0.087098881602287292,
7.4124999999999996,-0.15008509159088135,
7.415,-0.17607292532920837,
7.4175000000000004,-0.19333402812480927,
7.4199999999999999,-0.19823829829692841,
7.4225000000000003,-0.15922050178050995,
7.4249999999999998,-0.11169235408306122,
7.4275000000000002,-0.044931769371032715,
7.4299999999999997,0.039955377578735352,
7.4325000000000001,0.25271415710449219,
7.4349999999999996,0.37178695201873779,
7.4375,0.49170118570327759,
7.4400000000000004,0.60584568977355957,
7.4424999999999999,0.78965961933135986,
7.4450000000000003,0.8470684289932251,
7.4474999999999998,0.87534010410308838,
7.4500000000000002,0.87209463119506836,
7.4524999999999997,0.77299952507019043,
7.4550000000000001,0.68385720252990723,
7.4574999999999996,0.57613158226013184,
7.46,0.45732319355010986,
7.4625000000000004,0.21824002265930176,
7.4649999999999999,0.1121731624007225,
7.4675000000000002,0.022237500175833702,
7.4699999999999998,-0.04860997200012207,
7.4725000000000001,-0.1314777135848999,
7.4749999999999996,-0.1469598263502121,
7.4775,-0.14936387538909912,
7.4800000000000004,-0.14246425032615662,
7.4824999999999999,-0.1146012544631958,
7.4850000000000003,-0.098830662667751312,
7.4874999999999998,-0.083973608911037445,
7.4900000000000002,-0.070583030581474304,
7.4924999999999997,-0.048057042062282562,
7.4950000000000001,-0.03829658031463623,
7.4974999999999996,-0.029137134552001953,
7.5,-0.020530622452497482,
7.5025000000000004,-0.0058178110048174858,
7.5049999999999999,-0.00038464865065179765,
7.5075000000000003,0.0033656756859272718,
7.5099999999999998,0.0053610405884683132,
7.5125000000000002,0.0046398243866860867,
7.5149999999999997,0.0028608243446797132,
7.5175000000000001,0.00091354054166004062,
7.5199999999999996,-0.00048081082059070468,
7.5225,0.00026444596005603671,
7.5250000000000004,0.0029569864273071289,
7.5274999999999999,0.0070679187774658203,
7.5300000000000002,0.012284716591238976,
7.5324999999999998,0.023752054199576378,
7.5350000000000001,0.028656324371695518,
7.5374999999999996,0.032238364219665527,
7.54,0.034041404724121094,
7.5425000000000004,0.031781595200300217,
7.5449999999999999,0.028079351410269737,
7.5475000000000003,0.023271244019269943,
7.5499999999999998,0.018126567825675011,
7.5525000000000002,0.013366540893912315,
7.5549999999999997,0.0079333782196044922,
7.5575000000000001,0.0082939863204956055,
7.5599999999999996,0.010986527428030968,
7.5625,0.015818675979971886,
7.5650000000000004,0.030026635155081749,
7.5674999999999999,0.038080215454101562,
7.5700000000000003,0.045773189514875412,
7.5724999999999998,0.052480500191450119,
7.5750000000000002,0.061471663415431976,
7.5774999999999997,0.063611268997192383,
7.5800000000000001,0.064428649842739105,
7.5824999999999996,0.064332485198974609,
7.585,0.063082382082939148,
7.5875000000000004,0.062649652361869812,
7.5899999999999999,0.062601566314697266,
7.5925000000000002,0.063034296035766602,
7.5949999999999998,0.065077744424343109,
7.5975000000000001,0.066472098231315613,
7.5999999999999996,0.068058773875236511,
7.6025,0.069837771356105804,
7.6050000000000004,0.07454971969127655,
7.6074999999999999,0.077771149575710297,
7.6100000000000003,0.08171379566192627,
7.6124999999999998,0.086425743997097015,
7.6150000000000002,0.097388230264186859,
7.6174999999999997,0.10315795987844467,
7.6200000000000001,0.10868728160858154,
7.6224999999999996,0.11371175944805145,
7.625,0.12190958112478256,
7.6275000000000004,0.12539546191692352,
7.6299999999999999,0.12892942130565643,
7.6325000000000003,0.13294419646263123,
7.6349999999999998,0.14407496154308319,
7.6375000000000002,0.1515275239944458,
7.6399999999999997,0.16006192564964294,
7.6425000000000001,0.169149249792099,
7.6449999999999996,0.18619398772716522,
7.6475,0.19254069030284882,
7.6500000000000004,0.19653141498565674,
7.6524999999999999,0.19790172576904297,
7.6550000000000002,0.19338211417198181,
7.6574999999999998,0.18869420886039734,
7.6600000000000001,0.18362164497375488,
