Data Set 1:Time(s),Data Set 1:EKG(mV),Data Set 1:Heart Rate(bpm)
0,-0.30276656150817871,62.283737182617188
0.0025000000000000001,-0.29593905806541443,
0.0050000000000000001,-0.28589010238647461,
0.0074999999999999997,-0.27334094047546387,
0.01,-0.25937339663505554,
0.012500000000000001,-0.24514138698577881,
0.014999999999999999,-0.22018730640411377,
0.017500000000000002,-0.21105191111564636,
0.02,-0.20460903644561768,
0.022499999999999999,-0.19919991493225098,
0.025000000000000001,-0.19932012259960175,
0.0275,-0.20054619014263153,
0.029999999999999999,-0.20237326622009277,
0.032500000000000001,-0.206724613904953,
0.035000000000000003,-0.2092488706111908,
0.037499999999999999,-0.2123260498046875,
0.040000000000000001,-0.21629273891448975,
0.042500000000000003,-0.22776007652282715,
0.044999999999999998,-0.23514053225517273,
0.047500000000000001,-0.243001788854599,
0.050000000000000003,-0.25055050849914551,
0.052499999999999998,-0.26076775789260864,
0.055,-0.26163321733474731,
0.057500000000000002,-0.25894066691398621,
0.059999999999999998,-0.25278627872467041,
0.0625,-0.23264031112194061,
0.065000000000000002,-0.22083640098571777,
0.067500000000000004,-0.20944118499755859,
0.070000000000000007,-0.19929608702659607,
0.072499999999999995,-0.18330912292003632,
0.074999999999999997,-0.17631332576274872,
0.077499999999999999,-0.16857227683067322,
0.080000000000000002,-0.1589801013469696,
0.082500000000000004,-0.13203065097332001,
0.085000000000000006,-0.1154426783323288,
0.087499999999999994,-0.098542176187038422,
0.089999999999999997,-0.083348557353019714,
0.092499999999999999,-0.065823003649711609,
0.095000000000000001,-0.065943203866481781,
0.097500000000000003,-0.072025462985038757,
0.10000000000000001,-0.082843706011772156,
0.10249999999999999,-0.11010567843914032,
0.105,-0.12174129486083984,
0.1075,-0.12945830821990967,
0.11,-0.13227105140686035,
0.1125,-0.12390494346618652,
0.115,-0.11484166234731674,
0.11749999999999999,-0.10443210601806641,
0.12,-0.094046592712402344,
0.1225,-0.07671336829662323,
0.125,-0.070246458053588867,
0.1275,-0.06502966582775116,
0.13,-0.06075044721364975,
0.13250000000000001,-0.054596066474914551,
0.13500000000000001,-0.053033433854579926,
0.13750000000000001,-0.05293726921081543,
0.14000000000000001,-0.054692231118679047,
0.14249999999999999,-0.064404606819152832,
0.14499999999999999,-0.071953341364860535,
0.14749999999999999,-0.080607935786247253,
0.14999999999999999,-0.089647173881530762,
0.1525,-0.10609090328216553,
0.155,-0.11253377050161362,
0.1575,-0.11748611927032471,
0.16,-0.12118836492300034,
0.16250000000000001,-0.12628495693206787,
0.16500000000000001,-0.12878517806529999,
0.16750000000000001,-0.13203065097332001,
0.17000000000000001,-0.13659834861755371,
0.17249999999999999,-0.15145540237426758,
0.17499999999999999,-0.1621534526348114,
0.17749999999999999,-0.17487089335918427,
0.17999999999999999,-0.18922309577465057,
0.1825,-0.22016327083110809,
0.185,-0.23518860340118408,
0.1875,-0.24889171123504639,
0.19,-0.26076775789260864,
0.1925,-0.27800482511520386,
0.19500000000000001,-0.28348606824874878,
0.19750000000000001,-0.28718829154968262,
0.20000000000000001,-0.28947216272354126,
0.20250000000000001,-0.29101073741912842,
0.20499999999999999,-0.29069823026657104,
0.20749999999999999,-0.28985679149627686,
0.20999999999999999,-0.28855860233306885,
0.21249999999999999,-0.28485637903213501,
0.215,-0.28264462947845459,
0.2175,-0.28031271696090698,
0.22,-0.27802884578704834,
0.2225,-0.27411025762557983,
0.22500000000000001,-0.2727399468421936,
0.22750000000000001,-0.27194660902023315,
0.23000000000000001,-0.27192255854606628,
0.23250000000000001,-0.2745189368724823,
0.23499999999999999,-0.27704319357872009,
0.23749999999999999,-0.28009635210037231,
0.23999999999999999,-0.28326970338821411,
0.24249999999999999,-0.28793355822563171,
0.245,-0.28848648071289062,
0.2475,-0.28745275735855103,
0.25,-0.28483232855796814,
0.2525,-0.27605754137039185,
0.255,-0.27105709910392761,
0.25750000000000001,-0.26651343703269958,
0.26000000000000001,-0.26300352811813354,
0.26250000000000001,-0.26047927141189575,
0.26500000000000001,-0.26160916686058044,
0.26750000000000002,-0.26415747404098511,
0.27000000000000002,-0.26778757572174072,
0.27250000000000002,-0.27685087919235229,
0.27500000000000002,-0.28158685564994812,
0.27750000000000002,-0.28596222400665283,
0.28000000000000003,-0.28966447710990906,
0.28249999999999997,-0.29399177432060242,
0.28499999999999998,-0.29423218965530396,
0.28749999999999998,-0.29312631487846375,
0.28999999999999998,-0.29084247350692749,
0.29249999999999998,-0.28411111235618591,
0.29499999999999998,-0.28062522411346436,
0.29749999999999999,-0.27766823768615723,
0.29999999999999999,-0.27550458908081055,
0.30249999999999999,-0.2743266224861145,
0.30499999999999999,-0.27427852153778076,
0.3075,-0.27475935220718384,
0.31,-0.27497571706771851,
0.3125,-0.27338904142379761,
0.315,-0.27127346396446228,
0.3175,-0.26831647753715515,
0.32000000000000001,-0.26478251814842224,
0.32250000000000001,-0.25730592012405396,
0.32500000000000001,-0.25415658950805664,
0.32750000000000001,-0.25184869766235352,
0.33000000000000002,-0.25069475173950195,
0.33250000000000002,-0.2524256706237793,
0.33500000000000002,-0.2553105354309082,
0.33750000000000002,-0.25927722454071045,
0.34000000000000002,-0.26403725147247314,
0.34250000000000003,-0.27418237924575806,
0.34499999999999997,-0.27870199084281921,
0.34749999999999998,-0.28242826461791992,
0.34999999999999998,-0.28516888618469238,
0.35249999999999998,-0.28783738613128662,
0.35499999999999998,-0.28805375099182129,
0.35749999999999998,-0.28766912221908569,
0.35999999999999999,-0.28680366277694702,
0.36249999999999999,-0.28319758176803589,
0.36499999999999999,-0.28009635210037231,
0.36749999999999999,-0.27584117650985718,
0.37,-0.27033588290214539,
0.3725,-0.2560558021068573,
0.375,-0.24807433784008026,
0.3775,-0.24042944610118866,
0.38,-0.23381829261779785,
0.38250000000000001,-0.22655805945396423,
0.38500000000000001,-0.22682249546051025,
0.38750000000000001,-0.22989968955516815,
0.39000000000000001,-0.23550114035606384,
0.39250000000000002,-0.25194486975669861,
0.39500000000000002,-0.26103219389915466,
0.39750000000000002,-0.26939830183982849,
0.40000000000000002,-0.2761056125164032,
0.40250000000000002,-0.28199553489685059,
0.40500000000000003,-0.28072139620780945,
0.40749999999999997,-0.27709126472473145,
0.40999999999999998,-0.27177831530570984,
0.41249999999999998,-0.26019078493118286,
0.41499999999999998,-0.25583943724632263,
0.41749999999999998,-0.25333923101425171,
0.41999999999999998,-0.25281032919883728,
0.42249999999999999,-0.25629621744155884,
0.42499999999999999,-0.25870025157928467,
0.42749999999999999,-0.26023885607719421,
0.42999999999999999,-0.26009461283683777,
0.4325,-0.25333923101425171,
0.435,-0.24711272120475769,
0.4375,-0.2399245947599411,
0.44,-0.23285667598247528,
0.4425,-0.22367319464683533,
0.44500000000000001,-0.22333662211894989,
0.44750000000000001,-0.22648593783378601,
0.45000000000000001,-0.2330249547958374,
0.45250000000000001,-0.25357961654663086,
0.45500000000000002,-0.26535949110984802,
0.45750000000000002,-0.27634602785110474,
0.46000000000000002,-0.28519293665885925,
0.46250000000000002,-0.29259741306304932,
0.46500000000000002,-0.29031357169151306,
0.46750000000000003,-0.28442364931106567,
0.46999999999999997,-0.27596136927604675,
0.47249999999999998,-0.26617687940597534,
0.47499999999999998,-0.24872343242168427,
0.47749999999999998,-0.24353067576885223,
0.47999999999999998,-0.24158339202404022,
0.48249999999999998,-0.24658381938934326,
0.48499999999999999,-0.25177657604217529,
0.48749999999999999,-0.25713762640953064,
0.48999999999999999,-0.26144087314605713,
0.49249999999999999,-0.26348432898521423,
0.495,-0.26079177856445312,
0.4975,-0.25610387325286865,
0.5,-0.25031012296676636,
0.50249999999999995,-0.23941974341869354,
0.505,-0.2361021488904953,
0.50749999999999995,-0.23485204577445984,
0.51000000000000001,-0.23578962683677673,
0.51249999999999996,-0.24259309470653534,
0.51500000000000001,-0.24706463515758514,
0.51749999999999996,-0.25110346078872681,
0.52000000000000002,-0.25394022464752197,
0.52249999999999996,-0.25502204895019531,
0.52500000000000002,-0.25086304545402527,
0.52749999999999997,-0.24595877528190613,
0.53000000000000003,-0.2399245947599411,
0.53249999999999997,-0.23355385661125183,
0.53500000000000003,-0.223048135638237,
0.53749999999999998,-0.22025942802429199,
0.54000000000000004,-0.21949014067649841,
0.54249999999999998,-0.22340874373912811,
0.54500000000000004,-0.22708694636821747,
0.54749999999999999,-0.23102959990501404,
0.55000000000000004,-0.23458759486675262,
0.55249999999999999,-0.23737630248069763,
0.55500000000000005,-0.24004480242729187,
0.5575,-0.24028520286083221,
0.56000000000000005,-0.24026116728782654,
0.5625,-0.24033328890800476,
0.56499999999999995,-0.24165551364421844,
0.5675,-0.24273733794689178,
0.56999999999999995,-0.24360279738903046,
0.57250000000000001,-0.24369895458221436,
0.57499999999999996,-0.23898701369762421,
0.57750000000000001,-0.23314516246318817,
0.57999999999999996,-0.22470693290233612,
0.58250000000000002,-0.21398484706878662,
0.58499999999999996,-0.18898269534111023,
0.58750000000000002,-0.17725090682506561,
0.58999999999999997,-0.16811549663543701,
0.59250000000000003,-0.16311506927013397,
0.59499999999999997,-0.16967813670635223,
0.59750000000000003,-0.18181860446929932,
0.59999999999999998,-0.19903163611888885,
0.60250000000000004,-0.21975457668304443,
0.60499999999999998,-0.26317179203033447,
0.60750000000000004,-0.2813224196434021,
0.60999999999999999,-0.29454469680786133,
0.61250000000000004,-0.30173283815383911,
0.61499999999999999,-0.29742956161499023,
0.61750000000000005,-0.28764507174491882,
0.62,-0.27478337287902832,
0.62250000000000005,-0.26069563627243042,
0.625,-0.23552517592906952,
0.62749999999999995,-0.22684654593467712,
0.63,-0.22160570323467255,
0.63249999999999995,-0.21985074877738953,
0.63500000000000001,-0.22525987029075623,
0.63749999999999996,-0.23136615753173828,
0.64000000000000001,-0.23905913531780243,
0.64249999999999996,-0.24797818064689636,
0.64500000000000002,-0.26942235231399536,
0.64749999999999996,-0.28223595023155212,
0.65000000000000002,-0.2968045175075531,
0.65249999999999997,-0.313224196434021,
0.65500000000000003,-0.35087168216705322,
0.65749999999999997,-0.37060898542404175,
0.66000000000000003,-0.38904806971549988,
0.66249999999999998,-0.40409743785858154,
0.66500000000000004,-0.41328093409538269,
0.66749999999999998,-0.40159723162651062,
0.67000000000000004,-0.37536901235580444,
0.67249999999999999,-0.33233642578125,
0.67500000000000004,-0.19174735248088837,
0.67749999999999999,-0.095224581658840179,
0.68000000000000005,0.015578269958496094,
0.6825,0.13618966937065125,
0.68500000000000005,0.38188397884368896,
0.6875,0.49203774333000183,
0.68999999999999995,0.58327162265777588,
0.6925,0.6484454870223999,
0.69499999999999995,0.68039536476135254,
0.69750000000000001,0.64313256740570068,
0.69999999999999996,0.57242929935455322,
0.70250000000000001,0.47333419322967529,
0.70499999999999996,0.22105276584625244,
0.70750000000000002,0.08628150075674057,
0.70999999999999996,-0.041998825967311859,
0.71250000000000002,-0.15611927211284637,
0.71499999999999997,-0.32190284132957458,
0.71750000000000003,-0.36976754665374756,
0.71999999999999997,-0.39568325877189636,
0.72250000000000003,-0.40306371450424194,
0.72499999999999998,-0.38058578968048096,
0.72750000000000004,-0.36029559373855591,
0.72999999999999998,-0.33947646617889404,
0.73250000000000004,-0.32098931074142456,
0.73499999999999999,-0.29673239588737488,
0.73750000000000004,-0.29122710227966309,
0.73999999999999999,-0.28894326090812683,
0.74250000000000005,-0.28863072395324707,
0.745,-0.28860670328140259,
0.74750000000000005,-0.28706809878349304,
0.75,-0.28408706188201904,
0.75249999999999995,-0.27985593676567078,
0.755,-0.2699512243270874,
0.75749999999999995,-0.26555180549621582,
0.76000000000000001,-0.262114018201828,
0.76249999999999996,-0.25975805521011353,
0.76500000000000001,-0.25723379850387573,
0.76749999999999996,-0.2560558021068573,
0.77000000000000002,-0.25422871112823486,
0.77249999999999996,-0.25146406888961792,
0.77500000000000002,-0.24304986000061035,
0.77749999999999997,-0.23814558982849121,
0.78000000000000003,-0.23348173499107361,
0.78249999999999997,-0.22973141074180603,
0.78500000000000003,-0.22646188735961914,
0.78749999999999998,-0.22713503241539001,
0.79000000000000004,-0.22898614406585693,
0.79249999999999998,-0.23141424357891083,
0.79500000000000004,-0.23514053225517273,
0.79749999999999999,-0.23502032458782196,
0.80000000000000004,-0.2329287976026535,
0.80249999999999999,-0.22867362201213837,
0.80500000000000005,-0.21448969841003418,
0.8075,-0.20578703284263611,
0.81000000000000005,-0.19718050956726074,
0.8125,-0.18963178992271423,
0.81499999999999995,-0.18083295226097107,
0.8175,-0.18044829368591309,
0.81999999999999995,-0.18266002833843231,
0.82250000000000001,-0.18691520392894745,
0.82499999999999996,-0.19826233386993408,
0.82750000000000001,-0.20347914099693298,
0.82999999999999996,-0.20742177963256836,
0.83250000000000002,-0.20960947871208191,
0.83499999999999996,-0.20871996879577637,
0.83750000000000002,-0.20609955489635468,
0.83999999999999997,-0.20242135226726532,
0.84250000000000003,-0.19804596900939941,
0.84499999999999997,-0.18744409084320068,
0.84750000000000003,-0.18102526664733887,
0.84999999999999998,-0.17366886138916016,
0.85250000000000004,-0.16530275344848633,
0.85499999999999998,-0.14597415924072266,
0.85750000000000004,-0.13566076755523682,
0.85999999999999999,-0.12558779120445251,
0.86250000000000004,-0.11633217334747314,
0.86499999999999999,-0.10200401395559311,
0.86750000000000005,-0.097412273287773132,
0.87,-0.094575487077236176,
0.87250000000000005,-0.093277297914028168,
0.875,-0.093926392495632172,
0.87749999999999995,-0.094960138201713562,
0.88,-0.09584963321685791,
0.88249999999999995,-0.096090041100978851,
0.88500000000000001,-0.092868611216545105,
0.88749999999999996,-0.088805757462978363,
0.89000000000000001,-0.082915827631950378,
0.89249999999999996,-0.075367093086242676,
0.89500000000000002,-0.056639514863491058,
0.89749999999999996,-0.046638648957014084,
0.90000000000000002,-0.037190716713666916,
0.90249999999999997,-0.029089054092764854,
0.90500000000000003,-0.019617080688476562,
0.90749999999999997,-0.019184350967407227,
0.91000000000000003,-0.021876892074942589,
0.91249999999999998,-0.027550458908081055,
0.91500000000000004,-0.045773189514875412,
0.91749999999999998,-0.05675971508026123,
0.92000000000000004,-0.067698165774345398,
0.92249999999999999,-0.077650949358940125,
0.92500000000000004,-0.091714665293693542,
0.92749999999999999,-0.095272660255432129,
0.93000000000000005,-0.096787214279174805,
0.9325,-0.097051665186882019,
0.93500000000000005,-0.098181568086147308,
0.9375,-0.10135491937398911,
0.93999999999999995,-0.10746121406555176,
0.9425,-0.11698126792907715,
0.94499999999999995,-0.14551739394664764,
0.94750000000000001,-0.16301891207695007,
0.94999999999999996,-0.18119356036186218,
0.95250000000000001,-0.19876718521118164,
0.95499999999999996,-0.22768795490264893,
0.95750000000000002,-0.23761670291423798,
0.95999999999999996,-0.24422785639762878,
0.96250000000000002,-0.24780988693237305,
0.96499999999999997,-0.24865131080150604,
0.96750000000000003,-0.24788200855255127,
0.96999999999999997,-0.24771372973918915,
0.97250000000000003,-0.24901191890239716,
0.97499999999999998,-0.25802713632583618,
0.97750000000000004,-0.26562392711639404,
0.97999999999999998,-0.27444681525230408,
0.98250000000000004,-0.28343796730041504,
0.98499999999999999,-0.29692471027374268,
0.98750000000000004,-0.29928070306777954,
0.98999999999999999,-0.29791039228439331,
0.99250000000000005,-0.29288589954376221,
0.995,-0.27495166659355164,
0.99750000000000005,-0.26449403166770935,
1,-0.25490185618400574,83.499000549316406
1.0024999999999999,-0.24737715721130371,
1.0049999999999999,-0.24129490554332733,
1.0075000000000001,-0.24295370280742645,
1.01,-0.24716079235076904,
1.0125,-0.25309881567955017,
1.0149999999999999,-0.26701828837394714,
1.0175000000000001,-0.27355730533599854,
1.02,-0.27923089265823364,
1.0225,-0.28387069702148438,
1.0249999999999999,-0.29014527797698975,
1.0275000000000001,-0.29199641942977905,
1.03,-0.29315036535263062,
1.0325,-0.29360711574554443,
1.0349999999999999,-0.29240509867668152,
1.0375000000000001,-0.29060205817222595,
1.04,-0.28788548707962036,
1.0425,-0.28437554836273193,
1.0449999999999999,-0.27588924765586853,
1.0475000000000001,-0.27185043692588806,
1.05,-0.26874920725822449,
1.0525,-0.26723465323448181,
1.0549999999999999,-0.2708888053894043,
1.0575000000000001,-0.276297926902771,
1.0600000000000001,-0.28360626101493835,
1.0625,-0.29204449057579041,
1.0649999999999999,-0.30769488215446472,
1.0674999999999999,-0.31259915232658386,
1.0700000000000001,-0.31435412168502808,
1.0725,-0.31250298023223877,
1.075,-0.29894411563873291,
1.0774999999999999,-0.28872689604759216,
1.0800000000000001,-0.27771633863449097,
1.0825,-0.26713848114013672,
1.085,-0.25124770402908325,
1.0874999999999999,-0.24713675677776337,
1.0900000000000001,-0.24583856761455536,
1.0925,-0.24711272120475769,
1.095,-0.25535863637924194,
1.0974999999999999,-0.26096007227897644,
1.1000000000000001,-0.26656150817871094,
1.1025,-0.27156195044517517,
1.105,-0.27790865302085876,
1.1074999999999999,-0.27887028455734253,
1.1100000000000001,-0.27848562598228455,
1.1125,-0.27716338634490967,
1.115,-0.27394196391105652,
1.1174999999999999,-0.27326881885528564,
1.1200000000000001,-0.27379772067070007,
1.1225000000000001,-0.27579307556152344,
1.125,-0.27911067008972168,
1.1274999999999999,-0.28778931498527527,
1.1299999999999999,-0.29178005456924438,
1.1325000000000001,-0.29454469680786133,
1.135,-0.29541015625,
1.1375,-0.29014527797698975,
1.1399999999999999,-0.28408706188201904,
1.1425000000000001,-0.27624985575675964,
1.145,-0.26737889647483826,
1.1475,-0.24982929229736328,
1.1499999999999999,-0.24285754561424255,
1.1525000000000001,-0.23804943263530731,
1.155,-0.23581366240978241,
1.1575,-0.23908317089080811,
1.1599999999999999,-0.2438431978225708,
1.1625000000000001,-0.24970909953117371,
1.165,-0.25581538677215576,
1.1675,-0.26555180549621582,
1.1699999999999999,-0.26817223429679871,
1.1725000000000001,-0.26920598745346069,
1.175,-0.26901364326477051,
1.1775,-0.26759526133537292,
1.1799999999999999,-0.26785969734191895,
1.1825000000000001,-0.26954254508018494,
1.1850000000000001,-0.27281206846237183,
1.1875,-0.2830052375793457,
1.1899999999999999,-0.28860670328140259,
1.1924999999999999,-0.29334267973899841,
1.1950000000000001,-0.29637178778648376,
1.1975,-0.29473704099655151,
1.2,-0.28959235548973083,
1.2024999999999999,-0.28189939260482788,
1.2050000000000001,-0.27230721712112427,
1.2075,-0.25105535984039307,
1.21,-0.241511270403862,
1.2124999999999999,-0.23393850028514862,
1.2150000000000001,-0.22908231616020203,
1.2175,-0.2283610999584198,
1.22,-0.23203930258750916,
1.2224999999999999,-0.23761670291423798,
1.2250000000000001,-0.24415573477745056,
1.2275,-0.25651258230209351,
1.23,-0.26100814342498779,
1.2324999999999999,-0.26394110918045044,
1.2350000000000001,-0.26550373435020447,
1.2375,-0.26620090007781982,
1.24,-0.26656150817871094,
1.2424999999999999,-0.26754719018936157,
1.2450000000000001,-0.26944637298583984,
1.2475000000000001,-0.27531227469444275,
1.25,-0.27838945388793945,
1.2524999999999999,-0.28064927458763123,
1.2549999999999999,-0.28139454126358032,
1.2575000000000001,-0.27634602785110474,
1.26,-0.27016758918762207,
1.2625,-0.26184958219528198,
1.2649999999999999,-0.25196892023086548,
1.2675000000000001,-0.23107767105102539,
1.27,-0.22215864062309265,
1.2725,-0.21552345156669617,
1.2749999999999999,-0.21186928451061249,
1.2775000000000001,-0.21424929797649384,
1.28,-0.21951417624950409,
1.2825,-0.22638976573944092,
1.2849999999999999,-0.23369809985160828,
1.2875000000000001,-0.24540583789348602,
1.29,-0.24833878874778748,
1.2925,-0.24903595447540283,
1.2949999999999999,-0.24783393740653992,
1.2975000000000001,-0.24254500865936279,
1.3,-0.2399245947599411,
1.3025,-0.23802539706230164,
1.3049999999999999,-0.2369435727596283,
1.3075000000000001,-0.23581366240978241,
1.3100000000000001,-0.23463568091392517,
1.3125,-0.23232778906822205,
1.3149999999999999,-0.22869765758514404,
1.3174999999999999,-0.21833619475364685,
1.3200000000000001,-0.2128789871931076,
1.3225,-0.20845553278923035,
1.325,-0.20583510398864746,
1.3274999999999999,-0.20797471702098846,
1.3300000000000001,-0.21275877952575684,
1.3325,-0.21939396858215332,
1.335,-0.22713503241539001,
1.3374999999999999,-0.24242481589317322,
1.3400000000000001,-0.24869939684867859,
1.3425,-0.2537238597869873,
1.345,-0.25769054889678955,
1.3474999999999999,-0.26456615328788757,
1.3500000000000001,-0.26884537935256958,
1.3525,-0.27444681525230408,
1.355,-0.28149068355560303,
1.3574999999999999,-0.29822289943695068,
1.3600000000000001,-0.30586779117584229,
1.3625,-0.3112528920173645,
1.365,-0.31300783157348633,
1.3674999999999999,-0.3022136390209198,
1.3700000000000001,-0.28985679149627686,
1.3725000000000001,-0.27437469363212585,
1.375,-0.25802713632583618,
1.3774999999999999,-0.23352980613708496,
1.3799999999999999,-0.2306930273771286,
1.3825000000000001,-0.23679932951927185,
1.385,-0.25249779224395752,
1.3875,-0.30904114246368408,
1.3899999999999999,-0.34510195255279541,
1.3925000000000001,-0.38149935007095337,
1.395,-0.41393002867698669,
1.3975,-0.44938981533050537,
1.3999999999999999,-0.44472596049308777,
1.4025000000000001,-0.42131048440933228,
1.405,-0.3776528537273407,
1.4075,-0.23001989722251892,
1.4099999999999999,-0.12996315956115723,
1.4125000000000001,-0.017333230003714561,
1.415,0.10248482227325439,
1.4175,0.33745706081390381,
1.4199999999999999,0.4383552074432373,
1.4225000000000001,0.51896315813064575,
1.425,0.57341498136520386,
1.4275,0.58894515037536621,
1.4299999999999999,0.54788392782211304,
1.4325000000000001,0.47684413194656372,
1.4350000000000001,0.38068196177482605,
1.4375,0.14140646159648895,
1.4399999999999999,0.015049378387629986,
1.4424999999999999,-0.10450422763824463,
1.4450000000000001,-0.20994603633880615,
1.4475,-0.35873293876647949,
1.45,-0.39806327223777771,
1.4524999999999999,-0.41534841060638428,
1.4550000000000001,-0.41414639353752136,
1.4575,-0.37652295827865601,
1.46,-0.35082361102104187,
1.4624999999999999,-0.32671093940734863,
1.4650000000000001,-0.30735832452774048,
1.4675,-0.28783738613128662,
1.47,-0.28680366277694702,
1.4724999999999999,-0.28940004110336304,
1.4750000000000001,-0.29353499412536621,
1.4775,-0.29899221658706665,
1.48,-0.29803058505058289,
1.4824999999999999,-0.29428026080131531,
1.4850000000000001,-0.28819799423217773,
1.4875,-0.27305245399475098,
1.49,-0.26620090007781982,
1.4924999999999999,-0.26105624437332153,
1.4950000000000001,-0.25819540023803711,
1.4975000000000001,-0.25944551825523376,
1.5,-0.26276311278343201,
1.5024999999999999,-0.26694616675376892,
1.5049999999999999,-0.27120134234428406,
1.5075000000000001,-0.2767547070980072,
1.51,-0.27697107195854187,
1.5125,-0.27511996030807495,
1.5149999999999999,-0.27115327119827271,
1.5175000000000001,-0.25776267051696777,
1.52,-0.24901191890239716,
1.5225,-0.23944377899169922,
1.5249999999999999,-0.22963523864746094,
1.5275000000000001,-0.21134039759635925,
1.53,-0.20410418510437012,
1.5325,-0.19888739287853241,
1.5349999999999999,-0.19617080688476562,
1.5375000000000001,-0.19893547892570496,
1.54,-0.20408014953136444,
1.5425,-0.21095573902130127,
1.5449999999999999,-0.21869680285453796,
1.5475000000000001,-0.23252010345458984,
1.55,-0.23689548671245575,
1.5525,-0.23879468441009521,
1.5549999999999999,-0.23812155425548553,
1.5575000000000001,-0.23026029765605927,
1.5600000000000001,-0.22417804598808289,
1.5625,-0.21747073531150818,
1.5649999999999999,-0.21061918139457703,
1.5674999999999999,-0.19763728976249695,
1.5700000000000001,-0.19167523086071014,
1.5725,-0.18607378005981445,
1.575,-0.1808089017868042,
1.5774999999999999,-0.17136096954345703,
1.5800000000000001,-0.16725003719329834,
1.5825,-0.16357183456420898,
1.585,-0.16025424003601074,
1.5874999999999999,-0.1538594663143158,
1.5900000000000001,-0.15030145645141602,
1.5925,-0.14621457457542419,
1.595,-0.14157474040985107,
1.5974999999999999,-0.13094882667064667,
1.6000000000000001,-0.12544354796409607,
1.6025,-0.12025078386068344,
1.605,-0.11561095714569092,
1.6074999999999999,-0.10811030864715576,
1.6100000000000001,-0.10503312200307846,
1.6125,-0.10202805697917938,
1.615,-0.098806619644165039,
1.6174999999999999,-0.090753041207790375,
1.6200000000000001,-0.085728570818901062,
1.6225000000000001,-0.080223284661769867,
1.625,-0.07454971969127655,
1.6274999999999999,-0.064452692866325378,
1.6299999999999999,-0.060942769050598145,
1.6325000000000001,-0.058995485305786133,
1.635,-0.05875508114695549,
1.6375,-0.060245595872402191,
1.6399999999999999,-0.067000985145568848,
1.6425000000000001,-0.071135960519313812,
1.645,-0.074862241744995117,
1.6475,-0.078756809234619141,
1.6499999999999999,-0.078396201133728027,
1.6525000000000001,-0.07671336829662323,
1.655,-0.074309311807155609,
1.6575,-0.070943638682365417,
1.6599999999999999,-0.071857176721096039,
1.6625000000000001,-0.075583457946777344,
1.665,-0.082555219531059265,
1.6675,-0.10592262446880341,
1.6699999999999999,-0.121404729783535,
1.6725000000000001,-0.13849756121635437,
1.675,-0.15635967254638672,
1.6775,-0.19150695204734802,
1.6799999999999999,-0.20771026611328125,
1.6825000000000001,-0.22251924872398376,
1.6850000000000001,-0.23578962683677673,
1.6875,-0.25732994079589844,
1.6899999999999999,-0.26567202806472778,
1.6924999999999999,-0.27237933874130249,
1.6950000000000001,-0.27754804491996765,
1.6975,-0.28322160243988037,
1.7,-0.28379857540130615,
1.7024999999999999,-0.28293311595916748,
1.7050000000000001,-0.2806733250617981,
1.7075,-0.27713936567306519,
1.71,-0.26749908924102783,
1.7124999999999999,-0.26228231191635132,
1.7150000000000001,-0.25757035613059998,
1.7175,-0.25391620397567749,
1.72,-0.25163233280181885,
1.7224999999999999,-0.25338730216026306,
1.7250000000000001,-0.25692126154899597,
1.7275,-0.26177746057510376,
1.73,-0.27310055494308472,
1.7324999999999999,-0.27836543321609497,
1.7350000000000001,-0.28283697366714478,
1.7375,-0.28629881143569946,
1.74,-0.29077035188674927,
1.7424999999999999,-0.29247722029685974,
1.7450000000000001,-0.29435238242149353,
1.7475000000000001,-0.29675644636154175,
1.75,-0.30358394980430603,
1.7524999999999999,-0.3078150749206543,
1.7549999999999999,-0.3120943009853363,
1.7575000000000001,-0.31589269638061523,
1.76,-0.31954687833786011,
1.7625,-0.3183448314666748,
1.7649999999999999,-0.31473875045776367,
1.7675000000000001,-0.30875265598297119,
1.77,-0.29149156808853149,
1.7725,-0.28187534213066101,
1.7749999999999999,-0.27305245399475098,
1.7775000000000001,-0.26605665683746338,
1.78,-0.2606235146522522,
1.7825,-0.26266694068908691,
1.7849999999999999,-0.26742696762084961,
1.7875000000000001,-0.27399003505706787,
1.79,-0.28805375099182129,
1.7925,-0.29334267973899841,
1.7949999999999999,-0.29639583826065063,
1.7975000000000001,-0.29694876074790955,
1.8,-0.29134732484817505,
1.8025,-0.28632283210754395,
1.8049999999999999,-0.28079351782798767,
1.8075000000000001,-0.27545651793479919,
1.8100000000000001,-0.26721060276031494,
1.8125,-0.26473444700241089,
1.8149999999999999,-0.26338815689086914,
1.8174999999999999,-0.26297947764396667,
1.8200000000000001,-0.26418149471282959,
1.8225,-0.26543161273002625,
1.825,-0.26697021722793579,
1.8274999999999999,-0.26874920725822449,
1.8300000000000001,-0.27290821075439453,
1.8325,-0.27528822422027588,
1.835,-0.27786058187484741,
1.8374999999999999,-0.28043290972709656,
1.8400000000000001,-0.28466403484344482,
1.8425,-0.2855294942855835,
1.845,-0.28509676456451416,
1.8474999999999999,-0.2830052375793457,
1.8500000000000001,-0.27384579181671143,
1.8525,-0.2675231397151947,
1.855,-0.26108026504516602,
1.8574999999999999,-0.25550287961959839,
1.8600000000000001,-0.2508389949798584,
1.8625,-0.2530747652053833,
1.865,-0.25858005881309509,
1.8674999999999999,-0.26675385236740112,
1.8700000000000001,-0.28685173392295837,
1.8725000000000001,-0.29593905806541443,
1.875,-0.30257424712181091,
1.8774999999999999,-0.30567547678947449,
1.8799999999999999,-0.29944896697998047,
1.8825000000000001,-0.29062610864639282,
1.885,-0.27911067008972168,
1.8875,-0.26620090007781982,
1.8899999999999999,-0.24167954921722412,
1.8925000000000001,-0.23247203230857849,
1.895,-0.22636573016643524,
1.8975,-0.22362510859966278,
1.8999999999999999,-0.22689461708068848,
1.9025000000000001,-0.2313421219587326,
1.905,-0.23627042770385742,
1.9075,-0.240669846534729,
1.9099999999999999,-0.2452375590801239,
1.9125000000000001,-0.24511735141277313,
1.915,-0.24393936991691589,
1.9175,-0.24256905913352966,
1.9199999999999999,-0.24297773838043213,
1.9225000000000001,-0.24619917571544647,
1.925,-0.25180062651634216,
1.9275,-0.25942146778106689,
1.9299999999999999,-0.27728360891342163,
1.9325000000000001,-0.28521698713302612,
1.9350000000000001,-0.29101073741912842,
1.9375,-0.29391965270042419,
1.9399999999999999,-0.29016932845115662,
1.9424999999999999,-0.28427940607070923,
1.9450000000000001,-0.27680277824401855,
1.9475,-0.26889345049858093,
1.95,-0.25600773096084595,
1.9524999999999999,-0.25261801481246948,
1.9550000000000001,-0.25172850489616394,
1.9575,-0.25314688682556152,
1.96,-0.26055139303207397,
1.9624999999999999,-0.26466232538223267,
1.9650000000000001,-0.26773950457572937,
1.9675,-0.26894152164459229,
1.97,-0.26394110918045044,
1.9724999999999999,-0.25790691375732422,
1.9750000000000001,-0.25033414363861084,
1.9775,-0.24218440055847168,
1.98,-0.2284572571516037,
1.9824999999999999,-0.22468289732933044,
1.9850000000000001,-0.22364914417266846,
1.9875,-0.22540411353111267,
1.99,-0.2354530543088913,
1.9924999999999999,-0.24220845103263855,
1.9950000000000001,-0.24893979728221893,
1.9975000000000001,-0.25482973456382751,
2,-0.26172935962677002,84
2.0024999999999999,-0.26218613982200623,
2.0049999999999999,-0.2607196569442749,
2.0074999999999998,-0.25761842727661133,
2.0099999999999998,-0.24831473827362061,
2.0125000000000002,-0.2431941032409668,
2.0150000000000001,-0.23836195468902588,
2.0175000000000001,-0.23420295119285583,
2.02,-0.22850534319877625,
2.0225,-0.22679845988750458,
2.0249999999999999,-0.22552430629730225,
2.0274999999999999,-0.22434632480144501,
2.0299999999999998,-0.22122105956077576,
2.0325000000000002,-0.21915356814861298,
2.0350000000000001,-0.21701395511627197,
2.0375000000000001,-0.21523496508598328,
2.04,-0.21489839255809784,
2.0425,-0.21718224883079529,
2.0449999999999999,-0.22143742442131042,
2.0474999999999999,-0.2276158332824707,
2.0499999999999998,-0.24420380592346191,
2.0525000000000002,-0.25348347425460815,
2.0550000000000002,-0.26252269744873047,
2.0575000000000001,-0.27067244052886963,
2.0600000000000001,-0.28192341327667236,
2.0625,-0.28420728445053101,
2.0649999999999999,-0.28399091958999634,
2.0674999999999999,-0.28137049078941345,
2.0699999999999998,-0.27021569013595581,
2.0724999999999998,-0.26293140649795532,
2.0750000000000002,-0.25562307238578796,
2.0775000000000001,-0.24910807609558105,
2.0800000000000001,-0.24129490554332733,
2.0825,-0.240669846534729,
2.085,-0.24211227893829346,
2.0874999999999999,-0.24516543745994568,
2.0899999999999999,-0.25357961654663086,
2.0924999999999998,-0.25790691375732422,
2.0950000000000002,-0.262114018201828,
2.0975000000000001,-0.26660960912704468,
2.1000000000000001,-0.2797357439994812,
2.1025,-0.29040974378585815,
2.105,-0.30500233173370361,
2.1074999999999999,-0.32380205392837524,
2.1099999999999999,-0.37171483039855957,
2.1124999999999998,-0.39767861366271973,
2.1150000000000002,-0.42159897089004517,
2.1175000000000002,-0.44035059213638306,
2.1200000000000001,-0.44874072074890137,
2.1225000000000001,-0.43208062648773193,
2.125,-0.39827963709831238,
2.1274999999999999,-0.34608763456344604,
2.1299999999999999,-0.27543246746063232,
2.1324999999999998,-0.085295841097831726,
2.1349999999999998,0.027478337287902832,
2.1375000000000002,0.1454693078994751,
2.1400000000000001,0.37238797545433044,
2.1425000000000001,0.468189537525177,
2.145,0.54389321804046631,
2.1475,0.5945466160774231,
2.1499999999999999,0.60810548067092896,
2.1524999999999999,0.56947231292724609,
2.1549999999999998,0.50290405750274658,
2.1575000000000002,0.41251164674758911,
2.1600000000000001,0.18400630354881287,
2.1625000000000001,0.059860944747924805,
2.165,-0.061399541795253754,
2.1675,-0.17340442538261414,
2.1699999999999999,-0.35051107406616211,
2.1724999999999999,-0.41015565395355225,
2.1749999999999998,-0.44965428113937378,
2.1775000000000002,-0.47028106451034546,
2.1800000000000002,-0.46496808528900146,
2.1825000000000001,-0.44549524784088135,
2.1850000000000001,-0.41938722133636475,
2.1875,-0.38967311382293701,
2.1899999999999999,-0.32981216907501221,
2.1924999999999999,-0.30346375703811646,
2.1949999999999998,-0.28122624754905701,
2.1974999999999998,-0.26372474431991577,
2.2000000000000002,-0.24338643252849579,
2.2025000000000001,-0.23963610827922821,
2.2050000000000001,-0.23903509974479675,
2.2075,-0.24045348167419434,
2.21,-0.24494907259941101,
2.2124999999999999,-0.24631938338279724,
2.2149999999999999,-0.24663190543651581,
2.2174999999999998,-0.24591068923473358,
2.2200000000000002,-0.24345855414867401,
2.2225000000000001,-0.243001788854599,
2.2250000000000001,-0.24381916224956512,
2.2275,-0.2461751401424408,
2.23,-0.25478166341781616,
2.2324999999999999,-0.26004654169082642,
2.2349999999999999,-0.26499888300895691,
2.2374999999999998,-0.26896557211875916,
2.2400000000000002,-0.27173024415969849,
2.2425000000000002,-0.27002334594726562,
2.2450000000000001,-0.26629707217216492,
2.2475000000000001,-0.26088795065879822,
2.25,-0.24687230587005615,
2.2524999999999999,-0.23944377899169922,
2.2549999999999999,-0.23247203230857849,
2.2574999999999998,-0.22646188735961914,
2.2599999999999998,-0.2183842658996582,
2.2625000000000002,-0.21638891100883484,
2.2650000000000001,-0.21547536551952362,
2.2675000000000001,-0.21528303623199463,
2.27,-0.21506667137145996,
2.2725,-0.21424929797649384,
2.2749999999999999,-0.21271070837974548,
2.2774999999999999,-0.21042685210704803,
2.2799999999999998,-0.20477733016014099,
2.2825000000000002,-0.20201265811920166,
2.2850000000000001,-0.19970476627349854,
2.2875000000000001,-0.19797384738922119,
2.29,-0.19578616321086884,
2.2925,-0.19472837448120117,
2.2949999999999999,-0.19314169883728027,
2.2974999999999999,-0.1905934065580368,
2.2999999999999998,-0.18143396079540253,
2.3025000000000002,-0.17467856407165527,
2.3050000000000002,-0.16676923632621765,
2.3075000000000001,-0.15818676352500916,
2.3100000000000001,-0.14167091250419617,
2.3125,-0.13517996668815613,
2.3149999999999999,-0.13068437576293945,
2.3174999999999999,-0.12852072715759277,
2.3199999999999998,-0.1306363046169281,
2.3224999999999998,-0.13366541266441345,
2.3250000000000002,-0.13671855628490448,
2.3275000000000001,-0.13859371840953827,
2.3300000000000001,-0.13818502426147461,
2.3325,-0.12796780467033386,
2.335,-0.11818329989910126,
2.3374999999999999,-0.1062111109495163,
2.3399999999999999,-0.093229219317436218,
2.3424999999999998,-0.069765649735927582,
2.3450000000000002,-0.061639945954084396,
2.3475000000000001,-0.056783758103847504,
2.3500000000000001,-0.055197082459926605,
2.3525,-0.059572458267211914,
2.355,-0.063659355044364929,
2.3574999999999999,-0.067698165774345398,
2.3599999999999999,-0.070919595658779144,
2.3624999999999998,-0.073419809341430664,
2.3650000000000002,-0.072818800806999207,
2.3675000000000002,-0.071520611643791199,
2.3700000000000001,-0.070030093193054199,
2.3725000000000001,-0.068731904029846191,
2.375,-0.069573327898979187,
2.3774999999999999,-0.071592733263969421,
2.3799999999999999,-0.074669919908046722,
2.3824999999999998,-0.0830841064453125,
2.3849999999999998,-0.087868176400661469,
2.3875000000000002,-0.092772446572780609,
2.3900000000000001,-0.097796916961669922,
2.3925000000000001,-0.1091921329498291,
2.395,-0.11642833799123764,
2.3975,-0.12539546191692352,
2.3999999999999999,-0.13657431304454803,
2.4024999999999999,-0.16638457775115967,
2.4049999999999998,-0.18463134765625,
2.4075000000000002,-0.20429651439189911,
2.4100000000000001,-0.22444248199462891,
2.4125000000000001,-0.26170533895492554,
2.415,-0.27665853500366211,
2.4175,-0.28810185194015503,
2.4199999999999999,-0.29557844996452332,
2.4224999999999999,-0.29843926429748535,
2.4249999999999998,-0.29461681842803955,
2.4275000000000002,-0.28827011585235596,
2.4300000000000002,-0.28028866648674011,
2.4325000000000001,-0.26336413621902466,
2.4350000000000001,-0.25627216696739197,
2.4375,-0.25103133916854858,
2.4399999999999999,-0.24809837341308594,
2.4424999999999999,-0.2491561621427536,
2.4449999999999998,-0.25247377157211304,
2.4474999999999998,-0.25677701830863953,
2.4500000000000002,-0.2612726092338562,
2.4525000000000001,-0.26805204153060913,
2.4550000000000001,-0.26944637298583984,
2.4575,-0.26944637298583984,
2.46,-0.2682684063911438,
2.4624999999999999,-0.26451808214187622,
2.4649999999999999,-0.2632439136505127,
2.4674999999999998,-0.26319584250450134,
2.4700000000000002,-0.26485463976860046,
2.4725000000000001,-0.27413427829742432,
2.4750000000000001,-0.28163492679595947,
2.4775,-0.29052993655204773,
2.48,-0.30014616250991821,
2.4824999999999999,-0.31774383783340454,
2.4849999999999999,-0.32356163859367371,
2.4874999999999998,-0.32598972320556641,
2.4900000000000002,-0.32421073317527771,
2.4925000000000002,-0.30728620290756226,
2.4950000000000001,-0.29310226440429688,
2.4975000000000001,-0.27670663595199585,
2.5,-0.25973400473594666,
2.5024999999999999,-0.23141424357891083,
2.5049999999999999,-0.22312025725841522,
2.5074999999999998,-0.21989881992340088,
2.5099999999999998,-0.22172591090202332,
2.5125000000000002,-0.23713588714599609,
2.5150000000000001,-0.24778585135936737,
2.5175000000000001,-0.25814732909202576,
2.52,-0.26665768027305603,
2.5225,-0.27444681525230408,
2.5249999999999999,-0.27336499094963074,
2.5274999999999999,-0.26983103156089783,
2.5299999999999998,-0.26497483253479004,
2.5325000000000002,-0.25718569755554199,
2.5350000000000001,-0.25684913992881775,
2.5375000000000001,-0.25995036959648132,
2.54,-0.26651343703269958,
2.5425,-0.2868276834487915,
2.5449999999999999,-0.29769402742385864,
2.5474999999999999,-0.30673325061798096,
2.5499999999999998,-0.31231066584587097,
2.5525000000000002,-0.30908924341201782,
2.5550000000000002,-0.30007404088973999,
2.5575000000000001,-0.28726041316986084,
2.5600000000000001,-0.27225911617279053,
2.5625,-0.24317006766796112,
2.5649999999999999,-0.23264031112194061,
2.5674999999999999,-0.22636573016643524,
2.5699999999999998,-0.22475501894950867,
2.5724999999999998,-0.23381829261779785,
2.5750000000000002,-0.24237672984600067,
2.5775000000000001,-0.25180062651634216,
2.5800000000000001,-0.2607196569442749,
2.5825,-0.27295631170272827,
2.585,-0.27521610260009766,
2.5874999999999999,-0.27492761611938477,
2.5899999999999999,-0.27254760265350342,
2.5924999999999998,-0.26456615328788757,
2.5950000000000002,-0.26057541370391846,
2.5975000000000001,-0.25747418403625488,
2.6000000000000001,-0.25559902191162109,
2.6025,-0.25514227151870728,
2.605,-0.25569519400596619,
2.6074999999999999,-0.25593560934066772,
2.6099999999999999,-0.2552143931388855,
2.6124999999999998,-0.24956485629081726,
2.6150000000000002,-0.24485290050506592,
2.6175000000000002,-0.23956398665904999,
2.6200000000000001,-0.23453950881958008,
2.6225000000000001,-0.22843322157859802,
2.625,-0.22843322157859802,
2.6274999999999999,-0.23062090575695038,
2.6299999999999999,-0.2345154732465744,
2.6324999999999998,-0.2444922924041748,
2.6349999999999998,-0.24874746799468994,
2.6375000000000002,-0.2514880895614624,
2.6400000000000001,-0.25225740671157837,
2.6425000000000001,-0.24785797297954559,
2.645,-0.24343451857566833,
2.6475,-0.2384340763092041,
2.6499999999999999,-0.23357789218425751,
2.6524999999999999,-0.22708694636821747,
2.6549999999999998,-0.22634169459342957,
2.6575000000000002,-0.2275196760892868,
2.6600000000000001,-0.23042857646942139,
2.6625000000000001,-0.23961207270622253,
2.665,-0.2445884644985199,
2.6675,-0.24884364008903503,
2.6699999999999999,-0.25172850489616394,
2.6724999999999999,-0.25196892023086548,
2.6749999999999998,-0.24927636981010437,
2.6775000000000002,-0.24526159465312958,
2.6800000000000002,-0.24054965376853943,
2.6825000000000001,-0.23189505934715271,
2.6850000000000001,-0.22922655940055847,
2.6875,-0.22816877067089081,
2.6899999999999999,-0.22881786525249481,
2.6924999999999999,-0.23437123000621796,
2.6949999999999998,-0.23853024840354919,
2.6974999999999998,-0.24312198162078857,
2.7000000000000002,-0.24768969416618347,
2.7025000000000001,-0.25559902191162109,
2.7050000000000001,-0.25838774442672729,
2.7075,-0.26004654169082642,
2.71,-0.26031097769737244,
2.7124999999999999,-0.25591155886650085,
2.7149999999999999,-0.25105535984039307,
2.7174999999999998,-0.2445884644985199,
2.7200000000000002,-0.23682336509227753,
2.7225000000000001,-0.21929781138896942,
2.7250000000000001,-0.21081149578094482,
2.7275,-0.20340701937675476,
2.73,-0.19770941138267517,
2.7324999999999999,-0.19345423579216003,
2.7349999999999999,-0.19542555510997772,
2.7374999999999998,-0.20011346042156219,
2.7400000000000002,-0.20713329315185547,
2.7425000000000002,-0.22525987029075623,
2.7450000000000001,-0.23429910838603973,
2.7475000000000001,-0.24177572131156921,
2.75,-0.24660786986351013,
2.7524999999999999,-0.24540583789348602,
2.7549999999999999,-0.23908317089080811,
2.7574999999999998,-0.22965928912162781,
2.7599999999999998,-0.21819195151329041,
2.7625000000000002,-0.19496878981590271,
2.7650000000000001,-0.18595358729362488,
2.7675000000000001,-0.1801598072052002,
2.77,-0.17802020907402039,
2.7725,-0.18395821750164032,
2.7749999999999999,-0.19049724936485291,
2.7774999999999999,-0.19794981181621552,
2.7799999999999998,-0.20506581664085388,
2.7825000000000002,-0.21458587050437927,
2.7850000000000001,-0.21593213081359863,
2.7875000000000001,-0.21497051417827606,
2.79,-0.21215777099132538,
2.7925,-0.20439267158508301,
2.7949999999999999,-0.2014116495847702,
2.7974999999999999,-0.20030578970909119,
2.7999999999999998,-0.20172417163848877,
2.8025000000000002,-0.21295110881328583,
2.8050000000000002,-0.22218267619609833,
2.8075000000000001,-0.23288071155548096,
2.8100000000000001,-0.24396340548992157,
2.8125,-0.26326796412467957,
2.8149999999999999,-0.2698550820350647,
2.8174999999999999,-0.27382177114486694,
2.8199999999999998,-0.2752642035484314,
2.8224999999999998,-0.27259570360183716,
2.8250000000000002,-0.27019163966178894,
2.8275000000000001,-0.2684607207775116,
2.8300000000000001,-0.26841264963150024,
2.8325,-0.27685087919235229,
2.835,-0.28639495372772217,
2.8374999999999999,-0.29961726069450378,
2.8399999999999999,-0.31606099009513855,
2.8424999999999998,-0.33471643924713135,
2.8450000000000002,-0.372243732213974,
2.8475000000000001,-0.38676422834396362,
2.8500000000000001,-0.39498609304428101,
2.8525,-0.38205227255821228,
2.855,-0.35618466138839722,
2.8574999999999999,-0.31524360179901123,
2.8599999999999999,-0.25845986604690552,
2.8624999999999998,-0.18614590167999268,
2.8650000000000002,-0.0015145540237426758,
2.8675000000000002,0.10474463552236557,
2.8700000000000001,0.21458587050437927,
2.8725000000000001,0.42284905910491943,
2.875,0.50941908359527588,
2.8774999999999999,0.57666045427322388,
2.8799999999999999,0.61978918313980103,
2.8824999999999998,0.62178456783294678,
2.8849999999999998,0.57932895421981812,
2.8875000000000002,0.51035666465759277,
2.8900000000000001,0.41912278532981873,
2.8925000000000001,0.19371867179870605,
2.895,0.073323652148246765,
2.8975,-0.043056607246398926,
2.8999999999999999,-0.14938792586326599,
2.9024999999999999,-0.31433007121086121,
2.9049999999999998,-0.36796450614929199,
2.9075000000000002,-0.40176552534103394,
2.9100000000000001,-0.41695913672447205,
2.9125000000000001,-0.41604560613632202,
2.915,-0.37955206632614136,
2.9175,-0.35178524255752563,
2.9199999999999999,-0.32284042239189148,
2.9224999999999999,-0.29601117968559265,
2.9249999999999998,-0.25800308585166931,
2.9275000000000002,-0.24910807609558105,
2.9300000000000002,-0.24684827029705048,
2.9325000000000001,-0.25006970763206482,
2.9350000000000001,-0.2654796838760376,
2.9375,-0.27350923418998718,
2.9399999999999999,-0.27923089265823364,
2.9424999999999999,-0.2813224196434021,
2.9449999999999998,-0.27252358198165894,
2.9474999999999998,-0.26228231191635132,
2.9500000000000002,-0.24954080581665039,
2.9525000000000001,-0.23576557636260986,
2.9550000000000001,-0.21129231154918671,
2.9575,-0.203094482421875,
2.96,-0.19855082035064697,
2.9624999999999999,-0.19775748252868652,
2.9649999999999999,-0.20492157340049744,
2.9674999999999998,-0.21083554625511169,
2.9700000000000002,-0.21667739748954773,
2.9725000000000001,-0.22141337394714355,
2.9750000000000001,-0.22489926218986511,
2.9775,-0.22336065769195557,
2.98,-0.22006711363792419,
2.9824999999999999,-0.21559557318687439,
2.9849999999999999,-0.20573894679546356,
2.9874999999999998,-0.2014116495847702,
2.9900000000000002,-0.19782960414886475,
2.9925000000000002,-0.19506494700908661,
2.9950000000000001,-0.19181947410106659,
2.9975000000000001,-0.19114634394645691,
3,-0.19097805023193359,83.478263854980469
3.0024999999999999,-0.19119441509246826,
3.0049999999999999,-0.19205987453460693,
3.0074999999999998,-0.1921800822019577,
3.0099999999999998,-0.19157907366752625,
3.0125000000000002,-0.18989622592926025,
3.0150000000000001,-0.1823955774307251,
3.0175000000000001,-0.17657777667045593,
3.02,-0.16970217227935791,
3.0225,-0.16229769587516785,
3.0249999999999999,-0.14816185832023621,
3.0274999999999999,-0.14248828589916229,
3.0299999999999998,-0.13825714588165283,
3.0325000000000002,-0.13556461036205292,
3.0350000000000001,-0.13443470001220703,
3.0375000000000001,-0.13546845316886902,
3.04,-0.13710319995880127,
3.0425,-0.13885816931724548,
3.0449999999999999,-0.14097373187541962,
3.0474999999999999,-0.14042079448699951,
3.0499999999999998,-0.13818502426147461,
3.0525000000000002,-0.13397793471813202,
3.0550000000000002,-0.11938532441854477,
3.0575000000000001,-0.10945658385753632,
3.0600000000000001,-0.098446011543273926,
3.0625,-0.087098881602287292,
3.0649999999999999,-0.066568255424499512,
3.0674999999999999,-0.058779120445251465,
3.0699999999999998,-0.053177677094936371,
3.0724999999999998,-0.049836039543151855,
3.0750000000000002,-0.048922501504421234,
3.0775000000000001,-0.050268769264221191,
3.0800000000000001,-0.051879487931728363,
3.0825,-0.053129594773054123,
3.085,-0.052192013710737228,
3.0874999999999999,-0.049451392143964767,
3.0899999999999999,-0.045124094933271408,
3.0924999999999998,-0.039570730179548264,
3.0950000000000002,-0.026997527107596397,
3.0975000000000001,-0.021516283974051476,
3.1000000000000001,-0.017573636025190353,
3.1025,-0.015794634819030762,
3.105,-0.0200017299503088,
3.1074999999999999,-0.025867622345685959,
3.1099999999999999,-0.03368079662322998,
3.1124999999999998,-0.042816203087568283,
3.1150000000000002,-0.062625609338283539,
3.1175000000000002,-0.072337985038757324,
3.1200000000000001,-0.08171379566192627,
3.1225000000000001,-0.090801119804382324,
3.125,-0.10924021899700165,
3.1274999999999999,-0.11919300258159637,
3.1299999999999999,-0.129891037940979,
3.1324999999999998,-0.14135837554931641,
3.1349999999999998,-0.16563932597637177,
3.1375000000000002,-0.17768363654613495,
3.1400000000000001,-0.18905481696128845,
3.1425000000000001,-0.19929608702659607,
3.145,-0.21509072184562683,
3.1475,-0.22042772173881531,
3.1499999999999999,-0.22410592436790466,
3.1524999999999999,-0.22650997340679169,
3.1549999999999998,-0.2292025089263916,
3.1575000000000002,-0.23057281970977783,
3.1600000000000001,-0.23261627554893494,
3.1625000000000001,-0.23566941916942596,
3.165,-0.24506926536560059,
3.1675,-0.25098323822021484,
3.1699999999999999,-0.25713762640953064,
3.1724999999999999,-0.2629554271697998,
3.1749999999999998,-0.27161002159118652,
3.1775000000000002,-0.27379772067070007,
3.1800000000000002,-0.27439874410629272,
3.1825000000000001,-0.27355730533599854,
3.1850000000000001,-0.2684607207775116,
3.1875,-0.26487869024276733,
3.1899999999999999,-0.26108026504516602,
3.1924999999999999,-0.25737804174423218,
3.1949999999999998,-0.25156021118164062,
3.1974999999999998,-0.24997353553771973,
3.2000000000000002,-0.24949273467063904,
3.2025000000000001,-0.25014182925224304,
3.2050000000000001,-0.25410851836204529,
3.2075,-0.25672894716262817,
3.21,-0.259132981300354,
3.2124999999999999,-0.26086390018463135,
3.2149999999999999,-0.26117643713951111,
3.2174999999999998,-0.25978207588195801,
3.2200000000000002,-0.25773864984512329,
3.2225000000000001,-0.25557500123977661,
3.2250000000000001,-0.25319498777389526,
3.2275,-0.2538200318813324,
3.23,-0.25583943724632263,
3.2324999999999999,-0.259132981300354,
3.2349999999999999,-0.26785969734191895,
3.2374999999999998,-0.2721869945526123,
3.2400000000000002,-0.27579307556152344,
3.2425000000000002,-0.27824521064758301,
3.2450000000000001,-0.27877411246299744,
3.2475000000000001,-0.27687489986419678,
3.25,-0.2737736701965332,
3.2524999999999999,-0.26980698108673096,
3.2549999999999999,-0.26122450828552246,
3.2574999999999998,-0.25754630565643311,
3.2599999999999998,-0.25480568408966064,
3.2625000000000002,-0.25326710939407349,
3.2650000000000001,-0.25398832559585571,
3.2675000000000001,-0.25583943724632263,
3.27,-0.25817137956619263,
3.2725,-0.26045522093772888,
3.2749999999999999,-0.26321989297866821,
3.2774999999999999,-0.26312372088432312,
3.2799999999999998,-0.26192170381546021,
3.2825000000000002,-0.25978207588195801,
3.2850000000000001,-0.25367578864097595,
3.2875000000000001,-0.25043031573295593,
3.29,-0.24759352207183838,
3.2925,-0.24557411670684814,
3.2949999999999999,-0.24557411670684814,
3.2974999999999999,-0.24824261665344238,
3.2999999999999998,-0.25295457243919373,
3.3025000000000002,-0.25958976149559021,
3.3050000000000002,-0.27685087919235229,
3.3075000000000001,-0.2857939600944519,
3.3100000000000001,-0.29341480135917664,
3.3125,-0.29846331477165222,
3.3149999999999999,-0.29716512560844421,
3.3174999999999999,-0.28997701406478882,
3.3199999999999998,-0.27887028455734253,
3.3224999999999998,-0.26492676138877869,
3.3250000000000002,-0.23480395972728729,
3.3275000000000001,-0.22213459014892578,
3.3300000000000001,-0.21314343810081482,
3.3325,-0.20876805484294891,
3.335,-0.21441757678985596,
3.3374999999999999,-0.22307217121124268,
3.3399999999999999,-0.2337702214717865,
3.3424999999999998,-0.24475674331188202,
3.3450000000000002,-0.26074370741844177,
3.3475000000000001,-0.26326796412467957,
3.3500000000000001,-0.26151299476623535,
3.3525,-0.25579136610031128,
3.355,-0.23735225200653076,
3.3574999999999999,-0.22804856300354004,
3.3599999999999999,-0.22107681632041931,
3.3624999999999998,-0.21787941455841064,
3.3650000000000002,-0.2192256897687912,
3.3675000000000002,-0.23499628901481628,
3.3700000000000001,-0.24725696444511414,
3.3725000000000001,-0.26011866331100464,
3.375,-0.28036078810691833,
3.3774999999999999,-0.28485637903213501,
3.3799999999999999,-0.28468808531761169,
3.3824999999999998,-0.28004825115203857,
3.3849999999999998,-0.26105624437332153,
3.3875000000000002,-0.24944464862346649,
3.3900000000000001,-0.23841004073619843,
3.3925000000000001,-0.22922655940055847,
3.395,-0.21970650553703308,
3.3975,-0.21994690597057343,
3.3999999999999999,-0.22316834330558777,
3.4024999999999999,-0.22874574363231659,
3.4049999999999998,-0.24329027533531189,
3.4075000000000002,-0.25021395087242126,
3.4100000000000001,-0.25567114353179932,
3.4125000000000001,-0.25898873805999756,
3.415,-0.25817137956619263,
3.4175,-0.25437295436859131,
3.4199999999999999,-0.24908404052257538,
3.4224999999999999,-0.24312198162078857,
3.4249999999999998,-0.23252010345458984,
3.4275000000000002,-0.22927463054656982,
3.4300000000000002,-0.22783219814300537,
3.4325000000000001,-0.22821685671806335,
3.4350000000000001,-0.23316919803619385,
3.4375,-0.23670315742492676,
3.4399999999999999,-0.24030923843383789,
3.4424999999999999,-0.24350664019584656,
3.4449999999999998,-0.24742524325847626,
3.4474999999999998,-0.24780988693237305,
3.4500000000000002,-0.24704059958457947,
3.4525000000000001,-0.24506926536560059,
3.4550000000000001,-0.23773691058158875,
3.4575,-0.23268839716911316,
3.46,-0.22708694636821747,
3.4624999999999999,-0.22138933837413788,
3.4649999999999999,-0.21203756332397461,
3.4674999999999998,-0.20970563590526581,
3.4700000000000002,-0.20977775752544403,
3.4725000000000001,-0.21268665790557861,
3.4750000000000001,-0.2275196760892868,
3.4775,-0.23874661326408386,
3.48,-0.2513919472694397,
3.4824999999999999,-0.26418149471282959,
3.4849999999999999,-0.2839428186416626,
3.4874999999999998,-0.28788548707962036,
3.4900000000000002,-0.28632283210754395,
3.4925000000000002,-0.27872604131698608,
3.4950000000000001,-0.24699251353740692,
3.4975000000000001,-0.2253800630569458,
3.5,-0.20242135226726532,
3.5024999999999999,-0.18032810091972351,
3.5049999999999999,-0.14643093943595886,
3.5074999999999998,-0.13727149367332458,
3.5099999999999998,-0.13395389914512634,
3.5125000000000002,-0.13609349727630615,
3.5150000000000001,-0.14284889400005341,
3.5175000000000001,-0.16501426696777344,
3.52,-0.17777979373931885,
3.5225,-0.19023279845714569,
3.5249999999999999,-0.20162801444530487,
3.5274999999999999,-0.22004306316375732,
3.5299999999999998,-0.22723118960857391,
3.5325000000000002,-0.23348173499107361,
3.5350000000000001,-0.23925146460533142,
3.5375000000000001,-0.25103133916854858,
3.54,-0.25761842727661133,
3.5425,-0.26468634605407715,
3.5449999999999999,-0.27194660902023315,
3.5474999999999999,-0.28456789255142212,
3.5499999999999998,-0.28834223747253418,
3.5525000000000002,-0.28937599062919617,
3.5550000000000002,-0.28706809878349304,
3.5575000000000001,-0.27233123779296875,
3.5600000000000001,-0.26105624437332153,
3.5625,-0.24874746799468994,
3.5649999999999999,-0.23706376552581787,
3.5674999999999999,-0.22242307662963867,
3.5699999999999998,-0.22242307662963867,
3.5724999999999998,-0.22860150039196014,
3.5750000000000002,-0.24112662672996521,
3.5775000000000001,-0.28298121690750122,
3.5800000000000001,-0.30971428751945496,
3.5825,-0.33786576986312866,
3.585,-0.36515176296234131,
3.5874999999999999,-0.40765544772148132,
3.5899999999999999,-0.4182092547416687,
3.5924999999999998,-0.41873812675476074,
3.5950000000000002,-0.40748715400695801,
3.5975000000000001,-0.34430861473083496,
3.6000000000000001,-0.2909386157989502,
3.6025,-0.22307217121124268,
3.605,-0.1416468620300293,
3.6074999999999999,0.053754650056362152,
3.6099999999999999,0.16123990714550018,
3.6124999999999998,0.26932618021965027,
3.6150000000000002,0.37250816822052002,
3.6175000000000002,0.5401909351348877,
3.6200000000000001,0.59315228462219238,
3.6225000000000001,0.61928433179855347,
3.625,0.61577439308166504,
3.6274999999999999,0.51946800947189331,
3.6299999999999999,0.43212872743606567,
3.6324999999999998,0.32570123672485352,
3.6349999999999998,0.20737370848655701,
3.6375000000000002,-0.03413756936788559,
3.6400000000000001,-0.1429450511932373,
3.6425000000000001,-0.23624639213085175,
3.645,-0.3106037974357605,
3.6475,-0.3983517587184906,
3.6499999999999999,-0.41400215029716492,
3.6524999999999999,-0.41450700163841248,
3.6549999999999998,-0.40352046489715576,
3.6575000000000002,-0.36190629005432129,
3.6600000000000001,-0.33779364824295044,
3.6625000000000001,-0.31478685140609741,
3.665,-0.29440045356750488,
3.6675,-0.26432573795318604,
3.6699999999999999,-0.25482973456382751,
3.6724999999999999,-0.24874746799468994,
3.6749999999999998,-0.24571835994720459,
3.6775000000000002,-0.2474733293056488,
3.6800000000000002,-0.25168043375015259,
3.6825000000000001,-0.25759440660476685,
3.6850000000000001,-0.26473444700241089,
3.6875,-0.2797357439994812,
3.6899999999999999,-0.28586608171463013,
3.6924999999999999,-0.28985679149627686,
3.6949999999999998,-0.29103478789329529,
3.6974999999999998,-0.28389474749565125,
3.7000000000000002,-0.27600944042205811,
3.7025000000000001,-0.26617687940597534,
3.7050000000000001,-0.25535863637924194,
3.7075,-0.23490011692047119,
3.71,-0.22689461708068848,
3.7124999999999999,-0.22093257308006287,
3.7149999999999999,-0.21701395511627197,
3.7174999999999998,-0.21396081149578094,
3.7200000000000002,-0.21364828944206238,
3.7225000000000001,-0.21331171691417694,
3.7250000000000001,-0.21242222189903259,
3.7275,-0.20799875259399414,
3.73,-0.20465712249279022,
3.7324999999999999,-0.20107507705688477,
3.7349999999999999,-0.19792577624320984,
3.7374999999999998,-0.19597849249839783,
3.7400000000000002,-0.19840657711029053,
3.7425000000000002,-0.20345509052276611,
3.7450000000000001,-0.21083554625511169,
3.7475000000000001,-0.22915443778038025,
3.75,-0.23749649524688721,
3.7524999999999999,-0.24329027533531189,
3.7549999999999999,-0.2452375590801239,
3.7574999999999998,-0.23473183810710907,
3.7599999999999998,-0.22247116267681122,
3.7625000000000002,-0.20677268505096436,
3.7650000000000001,-0.1891990602016449,
3.7675000000000001,-0.15554229915142059,
3.77,-0.14265656471252441,
3.7725,-0.1338096559047699,
3.7749999999999999,-0.12936215102672577,
3.7774999999999999,-0.13195852935314178,
3.7799999999999998,-0.13707916438579559,
3.7825000000000002,-0.14299313724040985,
3.7850000000000001,-0.14837822318077087,
3.7875000000000001,-0.15304207801818848,
3.79,-0.15102267265319824,
3.7925,-0.1459260880947113,
3.7949999999999999,-0.13823311030864716,
3.7974999999999999,-0.11839966475963593,
3.7999999999999998,-0.10849495977163315,
3.8025000000000002,-0.10000865161418915,
3.8050000000000002,-0.093734070658683777,
3.8075000000000001,-0.089022122323513031,
3.8100000000000001,-0.089983746409416199,
3.8125,-0.092051230370998383,
3.8149999999999999,-0.094166800379753113,
3.8174999999999999,-0.094046592712402344,
3.8199999999999998,-0.090272232890129089,
3.8224999999999998,-0.083588957786560059,
3.8250000000000002,-0.074309311807155609,
3.8275000000000001,-0.051062107086181641,
3.8300000000000001,-0.039306282997131348,
3.8325,-0.029040973633527756,
3.835,-0.021299919113516808,
3.8374999999999999,-0.015818675979971886,
3.8399999999999999,-0.018391013145446777,
3.8424999999999998,-0.024016499519348145,
3.8450000000000002,-0.031949877738952637,
3.8475000000000001,-0.050941906869411469,
3.8500000000000001,-0.060269635170698166,
3.8525,-0.068611703813076019,
3.855,-0.075823865830898285,
3.8574999999999999,-0.088036462664604187,
3.8599999999999999,-0.094335079193115234,
3.8624999999999998,-0.10181169211864471,
3.8650000000000002,-0.11109133809804916,
3.8675000000000002,-0.13597330451011658,
3.8700000000000001,-0.15109479427337646,
3.8725000000000001,-0.16703367233276367,
3.875,-0.18290042877197266,
3.8774999999999999,-0.21088361740112305,
3.8799999999999999,-0.22182206809520721,
3.8824999999999998,-0.23042857646942139,
3.8849999999999998,-0.23689548671245575,
3.8875000000000002,-0.24494907259941101,
3.8900000000000001,-0.24744927883148193,
3.8925000000000001,-0.24942061305046082,
3.895,-0.25098323822021484,
3.8975,-0.25305074453353882,
3.8999999999999999,-0.25345942378044128,
3.9024999999999999,-0.25343537330627441,
3.9049999999999998,-0.25305074453353882,
3.9075000000000002,-0.2520410418510437,
3.9100000000000001,-0.25206506252288818,
3.9125000000000001,-0.25290650129318237,
3.915,-0.25499802827835083,
3.9175,-0.26362857222557068,
3.9199999999999999,-0.27023971080780029,
3.9224999999999999,-0.27798077464103699,
3.9249999999999998,-0.28632283210754395,
3.9275000000000002,-0.30151647329330444,
3.9300000000000002,-0.30661305785179138,
3.9325000000000001,-0.30904114246368408,
3.9350000000000001,-0.30831992626190186,
3.9375,-0.29786229133605957,
3.9399999999999999,-0.28930386900901794,
3.9424999999999999,-0.27987998723983765,
3.9449999999999998,-0.27081668376922607,
3.9474999999999998,-0.25776267051696777,
3.9500000000000002,-0.25499802827835083,
3.9525000000000001,-0.25475761294364929,
3.9550000000000001,-0.25660872459411621,
3.9575,-0.26307564973831177,
3.96,-0.2659364640712738,
3.9624999999999999,-0.26757121086120605,
3.9649999999999999,-0.26766738295555115,
3.9674999999999998,-0.26394110918045044,
3.9700000000000002,-0.26124855875968933,
3.9725000000000001,-0.25908491015434265,
3.9750000000000001,-0.2582915723323822,
3.9775,-0.2632439136505127,
3.98,-0.26942235231399536,
3.9824999999999999,-0.27764421701431274,
3.9849999999999999,-0.28709214925765991,
3.9874999999999998,-0.30497831106185913,
3.9900000000000002,-0.31096440553665161,
3.9925000000000002,-0.31360885500907898,
3.9950000000000001,-0.31238278746604919,
3.9975000000000001,-0.29887199401855469,
4,-0.28817397356033325,82.191780090332031
4.0025000000000004,-0.27653834223747253,
4.0049999999999999,-0.26526331901550293,
4.0075000000000003,-0.24836282432079315,
4.0099999999999998,-0.24396340548992157,
4.0125000000000002,-0.2422565221786499,
4.0149999999999997,-0.24273733794689178,
4.0175000000000001,-0.24716079235076904,
4.0199999999999996,-0.24946868419647217,
4.0225,-0.25110346078872681,
4.0250000000000004,-0.25180062651634216,
4.0274999999999999,-0.25071880221366882,
4.0300000000000002,-0.24961292743682861,
4.0324999999999998,-0.24869939684867859,
4.0350000000000001,-0.24838685989379883,
4.0374999999999996,-0.25079092383384705,
4.04,-0.25379598140716553,
4.0425000000000004,-0.25797903537750244,
4.0449999999999999,-0.26314777135848999,
4.0475000000000003,-0.27492761611938477,
4.0499999999999998,-0.28052908182144165,
4.0525000000000002,-0.28516888618469238,
4.0549999999999997,-0.28829416632652283,
4.0575000000000001,-0.28827011585235596,
4.0599999999999996,-0.28480827808380127,
4.0625,-0.27925491333007812,
4.0650000000000004,-0.27199468016624451,
4.0674999999999999,-0.25487780570983887,
4.0700000000000003,-0.24648766219615936,
4.0724999999999998,-0.2391793429851532,
4.0750000000000002,-0.23357789218425751,
4.0774999999999997,-0.22908231616020203,
4.0800000000000001,-0.23042857646942139,
4.0824999999999996,-0.2338663786649704,
4.085,-0.23891489207744598,
4.0875000000000004,-0.24485290050506592,
4.0899999999999999,-0.25598368048667908,
4.0925000000000002,-0.25961381196975708,
4.0949999999999998,-0.26120048761367798,
4.0975000000000001,-0.25790691375732422,
4.0999999999999996,-0.25365173816680908,
4.1025,-0.24855515360832214,
4.1050000000000004,-0.24341046810150146,
4.1074999999999999,-0.23891489207744598,
4.1100000000000003,-0.23381829261779785,
4.1124999999999998,-0.23345768451690674,
4.1150000000000002,-0.23422698676586151,
4.1174999999999997,-0.23742437362670898,
4.1200000000000001,-0.23901104927062988,
4.1224999999999996,-0.24016499519348145,
4.125,-0.240862175822258,
4.1275000000000004,-0.24122278392314911,
4.1299999999999999,-0.24189591407775879,
4.1325000000000003,-0.24268925189971924,
4.1349999999999998,-0.24403552711009979,
4.1375000000000002,-0.2459828108549118,
4.1399999999999997,-0.25127172470092773,
4.1425000000000001,-0.25410851836204529,
4.1449999999999996,-0.25663277506828308,
4.1475,-0.25843581557273865,
4.1500000000000004,-0.25879642367362976,
4.1524999999999999,-0.25694531202316284,
4.1550000000000002,-0.25374791026115417,
4.1574999999999998,-0.24939656257629395,
4.1600000000000001,-0.23865044116973877,
4.1624999999999996,-0.23309707641601562,
4.165,-0.22797644138336182,
4.1675000000000004,-0.22355298697948456,
4.1699999999999999,-0.21727840602397919,
4.1725000000000003,-0.21542727947235107,
4.1749999999999998,-0.21439354121685028,
4.1775000000000002,-0.21420121192932129,
4.1799999999999997,-0.2169899195432663,
4.1825000000000001,-0.22040367126464844,
4.1849999999999996,-0.2253800630569458,
4.1875,-0.23184697329998016,
4.1900000000000004,-0.24742524325847626,
4.1924999999999999,-0.25492590665817261,
4.1950000000000003,-0.26079177856445312,
4.1974999999999998,-0.26394110918045044,
4.2000000000000002,-0.2590368390083313,
4.2024999999999997,-0.25055050849914551,
4.2050000000000001,-0.23855428397655487,
4.2074999999999996,-0.22405783832073212,
4.21,-0.19292533397674561,
4.2125000000000004,-0.17915010452270508,
4.2149999999999999,-0.16818761825561523,
4.2175000000000002,-0.16083121299743652,
4.2199999999999998,-0.15770594775676727,
4.2225000000000001,-0.16133606433868408,
4.2249999999999996,-0.16741833090782166,
4.2275,-0.17496705055236816,
4.2300000000000004,-0.19066552817821503,
4.2324999999999999,-0.19732475280761719,
4.2350000000000003,-0.20266175270080566,
4.2374999999999998,-0.20667652785778046,
4.2400000000000002,-0.21194140613079071,
4.2424999999999997,-0.21412909030914307,
4.2450000000000001,-0.21660527586936951,
4.2474999999999996,-0.21961033344268799,
4.25,-0.22723118960857391,
4.2525000000000004,-0.23139020800590515,
4.2549999999999999,-0.23523668944835663,
4.2575000000000003,-0.23850619792938232,
4.2599999999999998,-0.24259309470653534,
4.2625000000000002,-0.24341046810150146,
4.2649999999999997,-0.24357876181602478,
4.2675000000000001,-0.2431941032409668,
4.2699999999999996,-0.24100641906261444,
4.2725,-0.23898701369762421,
4.2750000000000004,-0.23617427051067352,
4.2774999999999999,-0.23252010345458984,
4.2800000000000002,-0.22348086535930634,
4.2824999999999998,-0.21917760372161865,
4.2850000000000001,-0.21612446010112762,
4.2874999999999996,-0.21542727947235107,
4.29,-0.22509157657623291,
4.2925000000000004,-0.23696760833263397,
4.2949999999999999,-0.25391620397567749,
4.2975000000000003,-0.27562481164932251,
4.2999999999999998,-0.32889863848686218,
4.3025000000000002,-0.35683375597000122,
4.3049999999999997,-0.38226863741874695,
4.3075000000000001,-0.4021742045879364,
4.3099999999999996,-0.41210293769836426,
4.3125,-0.39575538039207458,
4.3150000000000004,-0.36173802614212036,
4.3174999999999999,-0.30853629112243652,
4.3200000000000003,-0.14518082141876221,
4.3224999999999998,-0.039162039756774902,
4.3250000000000002,0.077699027955532074,
4.3274999999999997,0.19956052303314209,
4.3300000000000001,0.43044587969779968,
4.3324999999999996,0.52485311031341553,
4.335,0.59620541334152222,
4.3375000000000004,0.63928604125976562,
4.3399999999999999,0.62930923700332642,
4.3425000000000002,0.5763479471206665,
4.3449999999999998,0.49552363157272339,
4.3475000000000001,0.39255797863006592,
4.3499999999999996,0.15013317763805389,
4.3525,0.027045607566833496,
4.3550000000000004,-0.087050795555114746,
4.3574999999999999,-0.186121866106987,
4.3600000000000003,-0.32435497641563416,
4.3624999999999998,-0.36149761080741882,
4.3650000000000002,-0.37916740775108337,
4.3674999999999997,-0.3806338906288147,
4.3700000000000001,-0.35147270560264587,
4.3724999999999996,-0.32923519611358643,
4.375,-0.3066851794719696,
4.3775000000000004,-0.28644305467605591,
4.3799999999999999,-0.25831562280654907,
4.3825000000000003,-0.25098323822021484,
4.3849999999999998,-0.24732908606529236,
4.3875000000000002,-0.24622321128845215,
4.3899999999999997,-0.24624726176261902,
4.3925000000000001,-0.24499714374542236,
4.3949999999999996,-0.24184784293174744,
4.3975,-0.23655891418457031,
4.4000000000000004,-0.22102873027324677,
4.4024999999999999,-0.21227797865867615,
4.4050000000000002,-0.20415227115154266,
4.4074999999999998,-0.19754111766815186,
4.4100000000000001,-0.19100210070610046,
4.4124999999999996,-0.19124250113964081,
4.415,-0.19335806369781494,
4.4175000000000004,-0.19669970870018005,
4.4199999999999999,-0.20432054996490479,
4.4225000000000003,-0.20749390125274658,
4.4249999999999998,-0.20975372195243835,
4.4275000000000002,-0.21107594668865204,
4.4299999999999997,-0.21131634712219238,
4.4325000000000001,-0.21061918139457703,
4.4349999999999996,-0.20963351428508759,
4.4375,-0.20847956836223602,
4.4400000000000004,-0.20597934722900391,
4.4424999999999999,-0.20463308691978455,
4.4450000000000003,-0.20316660404205322,
4.4474999999999998,-0.20145973563194275,
4.4500000000000002,-0.19672374427318573,
4.4524999999999997,-0.19333402812480927,
4.4550000000000001,-0.18900673091411591,
4.4574999999999996,-0.18371781706809998,
4.46,-0.17054359614849091,
4.4625000000000004,-0.16318719089031219,
4.4649999999999999,-0.15583078563213348,
4.4675000000000002,-0.14902731776237488,
4.4699999999999998,-0.13876199722290039,
4.4725000000000001,-0.13587713241577148,
4.4749999999999996,-0.13450682163238525,
4.4775,-0.1344587504863739,
4.4800000000000004,-0.13652622699737549,
4.4824999999999999,-0.13743977248668671,
4.4850000000000003,-0.13739168643951416,
4.4874999999999998,-0.13578097522258759,
4.4900000000000002,-0.12640516459941864,
4.4924999999999997,-0.11859198659658432,
4.4950000000000001,-0.10924021899700165,
4.4974999999999996,-0.099143192172050476,
4.5,-0.081257030367851257,
4.5025000000000004,-0.075775787234306335,
4.5049999999999999,-0.073876582086086273,
4.5075000000000003,-0.075920030474662781,
4.5099999999999998,-0.090440511703491211,
4.5125000000000002,-0.10072986781597137,
4.5149999999999997,-0.11082689464092255,
4.5175000000000001,-0.11890451610088348,
4.5199999999999996,-0.12267887592315674,
4.5225,-0.11652450263500214,
4.5250000000000004,-0.10488887876272202,
4.5274999999999999,-0.088565349578857422,
4.5300000000000002,-0.047720473259687424,
4.5324999999999998,-0.026973485946655273,
4.5350000000000001,-0.0084622707217931747,
4.5374999999999996,0.0062505407258868217,
4.54,0.020698904991149902,
4.5425000000000004,0.020097892731428146,
4.5449999999999999,0.015121500007808208,
4.5475000000000003,0.0069717569276690483,
4.5499999999999998,-0.012597243301570415,
4.5525000000000002,-0.02091526985168457,
4.5549999999999997,-0.026660960167646408,
4.5575000000000001,-0.0292332973331213,
4.5599999999999996,-0.025915702804923058,
4.5625,-0.021949013695120811,
4.5650000000000004,-0.018391013145446777,
4.5674999999999999,-0.016876459121704102,
4.5700000000000003,-0.025026202201843262,
4.5724999999999998,-0.035988688468933105,
4.5750000000000002,-0.051326554268598557,
4.5774999999999997,-0.070078179240226746,
4.5800000000000001,-0.11181255429983139,
4.5824999999999996,-0.13135752081871033,
4.585,-0.14792144298553467,
4.5875000000000004,-0.16042253375053406,
4.5899999999999999,-0.1715773344039917,
4.5925000000000002,-0.17095229029655457,
4.5949999999999998,-0.16758660972118378,
4.5975000000000001,-0.16285061836242676,
4.5999999999999996,-0.15554229915142059,
4.6025,-0.15549421310424805,
4.6050000000000004,-0.15888392925262451,
4.6074999999999999,-0.16571144759654999,
4.6100000000000003,-0.18710753321647644,
4.6124999999999998,-0.19948840141296387,
4.6150000000000002,-0.21129231154918671,
4.6174999999999997,-0.22153358161449432,
4.6200000000000001,-0.23518860340118408,
4.6224999999999996,-0.23881873488426208,
4.625,-0.24110257625579834,
4.6275000000000004,-0.24295370280742645,
4.6299999999999999,-0.24862727522850037,
4.6325000000000003,-0.25353154540061951,
4.6349999999999998,-0.25983017683029175,
4.6375000000000002,-0.26713848114013672,
4.6399999999999997,-0.28194746375083923,
4.6425000000000001,-0.28778931498527527,
4.6449999999999996,-0.29156368970870972,
4.6475,-0.29276570677757263,
4.6500000000000004,-0.28661131858825684,
4.6524999999999999,-0.27949532866477966,
4.6550000000000002,-0.27016758918762207,
4.6574999999999998,-0.25927722454071045,
4.6600000000000001,-0.24752140045166016,
4.6624999999999996,-0.22434632480144501,
4.665,-0.2143695056438446,
4.6675000000000004,-0.20621976256370544,
4.6699999999999999,-0.19677183032035828,
4.6725000000000003,-0.19573807716369629,
4.6749999999999998,-0.19708435237407684,
4.6775000000000002,-0.20064234733581543,
4.6799999999999997,-0.21328768134117126,
4.6825000000000001,-0.22170186042785645,
4.6849999999999996,-0.23083727061748505,
4.6875,-0.24018904566764832,
4.6900000000000004,-0.25711357593536377,
4.6924999999999999,-0.2635083794593811,
4.6950000000000003,-0.26793181896209717,
4.6974999999999998,-0.27031183242797852,
4.7000000000000002,-0.26987910270690918,
4.7024999999999997,-0.26822030544281006,
4.7050000000000001,-0.26663362979888916,
4.7074999999999996,-0.26572009921073914,
4.71,-0.26754719018936157,
4.7125000000000004,-0.27009546756744385,
4.7149999999999999,-0.27302843332290649,
4.7175000000000002,-0.27555269002914429,
4.7199999999999998,-0.27603349089622498,
4.7225000000000001,-0.27286013960838318,
4.7249999999999996,-0.26718658208847046,
4.7275,-0.25932532548904419,
4.7300000000000004,-0.23949186503887177,
4.7324999999999999,-0.22917847335338593,
4.7350000000000003,-0.21968245506286621,
4.7374999999999998,-0.21162888407707214,
4.7400000000000002,-0.20133952796459198,
4.7424999999999997,-0.19922396540641785,
4.7450000000000001,-0.19891142845153809,
4.7474999999999996,-0.20006537437438965,
4.75,-0.20516197383403778,
4.7525000000000004,-0.2085036039352417,
4.7549999999999999,-0.21206161379814148,
4.7575000000000003,-0.21581193804740906,
4.7599999999999998,-0.22444248199462891,
4.7625000000000002,-0.22968332469463348,
4.7649999999999997,-0.23574154078960419,
4.7675000000000001,-0.24256905913352966,
4.7699999999999996,-0.25706550478935242,
4.7725,-0.26348432898521423,
4.7750000000000004,-0.26817223429679871,
4.7774999999999999,-0.27035993337631226,
4.7800000000000002,-0.26461422443389893,
4.7824999999999998,-0.25639235973358154,
4.7850000000000001,-0.24511735141277313,
4.7874999999999996,-0.23172676563262939,
4.79,-0.20352721214294434,
4.7925000000000004,-0.19150695204734802,
4.7949999999999999,-0.18251578509807587,
4.7975000000000003,-0.17737111449241638,
4.7999999999999998,-0.17643353343009949,
4.8025000000000002,-0.18597762286663055,
4.8049999999999997,-0.19465625286102295,
4.8075000000000001,-0.20415227115154266,
4.8099999999999996,-0.2198747843503952,
4.8125,-0.22384147346019745,
4.8150000000000004,-0.22449056804180145,
4.8174999999999999,-0.2221105545759201,
4.8200000000000003,-0.21189332008361816,
4.8224999999999998,-0.20689289271831512,
4.8250000000000002,-0.20391187071800232,
4.8274999999999997,-0.20395994186401367,
4.8300000000000001,-0.21420121192932129,
4.8324999999999996,-0.22319237887859344,
4.835,-0.23300091922283173,
4.8375000000000004,-0.24191996455192566,
4.8399999999999999,-0.2484109103679657,
4.8425000000000002,-0.24994949996471405,
4.8449999999999998,-0.24466058611869812,
4.8475000000000001,-0.23622235655784607,
4.8499999999999996,-0.21581193804740906,
4.8525,-0.20710925757884979,
4.8550000000000004,-0.20124337077140808,
4.8574999999999999,-0.19903163611888885,
4.8600000000000003,-0.20578703284263611,
4.8624999999999998,-0.21331171691417694,
4.8650000000000002,-0.22194227576255798,
4.8674999999999997,-0.23011605441570282,
4.8700000000000001,-0.23966014385223389,
4.8724999999999996,-0.23925146460533142,
4.875,-0.23504436016082764,
4.8775000000000004,-0.22763988375663757,
4.8799999999999999,-0.20790259540081024,
4.8825000000000003,-0.19867102801799774,
4.8849999999999998,-0.19181947410106659,
4.8875000000000002,-0.18842975795269012,
4.8899999999999997,-0.19355039298534393,
4.8925000000000001,-0.20117124915122986,
4.8949999999999996,-0.21066725254058838,
4.8975,-0.22066812217235565,
4.9000000000000004,-0.23677527904510498,
4.9024999999999999,-0.24110257625579834,
4.9050000000000002,-0.24254500865936279,
4.9074999999999998,-0.24143914878368378,
4.9100000000000001,-0.2344193160533905,
4.9124999999999996,-0.23016414046287537,
4.915,-0.22629360854625702,
4.9175000000000004,-0.2231442928314209,
4.9199999999999999,-0.22069215774536133,
4.9225000000000003,-0.21643698215484619,
4.9249999999999998,-0.21369636058807373,
4.9275000000000002,-0.2098979651927948,
4.9299999999999997,-0.19869506359100342,
4.9325000000000001,-0.19181947410106659,
4.9349999999999996,-0.18489579856395721,
4.9375,-0.17876546084880829,
4.9400000000000004,-0.17436604201793671,
4.9424999999999999,-0.17347654700279236,
4.9450000000000003,-0.17751535773277283,
4.9474999999999998,-0.18419861793518066,
4.9500000000000002,-0.19268493354320526,
4.9524999999999997,-0.2105470597743988,
4.9550000000000001,-0.21747073531150818,
4.9574999999999996,-0.22179803252220154,
4.96,-0.22162973880767822,
4.9625000000000004,-0.21775922179222107,
4.9649999999999999,-0.21244625747203827,
4.9675000000000002,-0.206724613904953,
4.9699999999999998,-0.1974930465221405,
4.9725000000000001,-0.19494473934173584,
4.9749999999999996,-0.1937667578458786,
4.9775,-0.19347827136516571,
4.9800000000000004,-0.19323787093162537,
4.9824999999999999,-0.19215604662895203,
4.9850000000000003,-0.19006451964378357,
4.9874999999999998,-0.18701136112213135,
4.9900000000000002,-0.17958283424377441,
4.9924999999999997,-0.17628929018974304,
4.9950000000000001,-0.17400543391704559,
4.9974999999999996,-0.1731640100479126,
5,-0.17640948295593262,81.871345520019531
5.0025000000000004,-0.18037617206573486,
5.0049999999999999,-0.18556892871856689,
5.0075000000000003,-0.1916271448135376,
5.0099999999999998,-0.20489752292633057,
5.0125000000000002,-0.2114846408367157,
5.0149999999999997,-0.21775922179222107,
5.0175000000000001,-0.22364914417266846,
5.0199999999999996,-0.23379425704479218,
5.0225,-0.23788115382194519,
5.0250000000000004,-0.24110257625579834,
5.0274999999999999,-0.24321815371513367,
5.0300000000000002,-0.24401149153709412,
5.0324999999999998,-0.24143914878368378,
5.0350000000000001,-0.23862640559673309,
5.0374999999999996,-0.23574154078960419,
5.04,-0.23403465747833252,
5.0425000000000004,-0.24004480242729187,
5.0449999999999999,-0.25055050849914551,
5.0475000000000003,-0.26718658208847046,
5.0499999999999998,-0.2898087203502655,
5.0525000000000002,-0.34728965163230896,
5.0549999999999997,-0.37649890780448914,
5.0575000000000001,-0.40092408657073975,
5.0599999999999996,-0.41614174842834473,
5.0625,-0.40202996134757996,
5.0650000000000004,-0.36616146564483643,
5.0674999999999999,-0.30865651369094849,
5.0700000000000003,-0.22961120307445526,
5.0724999999999998,-0.016155242919921875,
5.0750000000000002,0.10964890569448471,
5.0774999999999997,0.240020751953125,
5.0800000000000001,0.36762794852256775,
5.0824999999999996,0.58377647399902344,
5.085,0.65801364183425903,
5.0875000000000004,0.70220017433166504,
5.0899999999999999,0.7129703164100647,
5.0925000000000002,0.6326749324798584,
5.0949999999999998,0.54697036743164062,
5.0975000000000001,0.43811482191085815,
5.0999999999999996,0.31356078386306763,
5.1025,0.050677459686994553,
5.1050000000000004,-0.071592733263969421,
5.1074999999999999,-0.17878949642181396,
5.1100000000000003,-0.26627302169799805,
5.1124999999999998,-0.37419101595878601,
5.1150000000000002,-0.39565920829772949,
5.1174999999999997,-0.39904892444610596,
5.1200000000000001,-0.38851916790008545,
5.1224999999999996,-0.34462115168571472,
5.125,-0.32005172967910767,
5.1275000000000004,-0.29834312200546265,
5.1299999999999999,-0.28149068355560303,
5.1325000000000003,-0.26456615328788757,
5.1349999999999998,-0.26293140649795532,
5.1375000000000002,-0.26372474431991577,
5.1399999999999997,-0.26511907577514648,
5.1425000000000001,-0.26331603527069092,
5.1449999999999996,-0.25821945071220398,
5.1475,-0.25014182925224304,
5.1500000000000004,-0.23961207270622253,
5.1524999999999999,-0.21533112227916718,
5.1550000000000002,-0.20398399233818054,
5.1574999999999998,-0.19465625286102295,
5.1600000000000001,-0.18814127147197723,
5.1624999999999996,-0.18477559089660645,
5.165,-0.18756429851055145,
5.1675000000000004,-0.19239644706249237,
5.1699999999999999,-0.19828638434410095,
5.1725000000000003,-0.20891229808330536,
5.1749999999999998,-0.21179716289043427,
5.1775000000000002,-0.2123260498046875,
5.1799999999999997,-0.21047493815422058,
5.1825000000000001,-0.20157992839813232,
5.1849999999999996,-0.19631505012512207,
5.1875,-0.19184350967407227,
5.1900000000000004,-0.18898269534111023,
5.1924999999999999,-0.18967986106872559,
5.1950000000000003,-0.19297342002391815,
5.1974999999999998,-0.19732475280761719,
5.2000000000000002,-0.20184437930583954,
5.2024999999999997,-0.20725350081920624,
5.2050000000000001,-0.20662844181060791,
5.2074999999999996,-0.20316660404205322,
5.21,-0.1969401091337204,
5.2125000000000004,-0.17792403697967529,
5.2149999999999999,-0.16662499308586121,
5.2175000000000002,-0.15542209148406982,
5.2199999999999998,-0.1452769935131073,
5.2225000000000001,-0.13145367801189423,
5.2249999999999996,-0.12873709201812744,
5.2275,-0.12897750735282898,
5.2300000000000004,-0.13171812891960144,
5.2324999999999999,-0.14159879088401794,
5.2350000000000003,-0.14657518267631531,
5.2374999999999998,-0.15013317763805389,
5.2400000000000002,-0.1514313668012619,
5.2424999999999997,-0.14554142951965332,
5.2450000000000001,-0.13864180445671082,
5.2474999999999996,-0.12993912398815155,
5.25,-0.12041907012462616,
5.2525000000000004,-0.10323008149862289,
5.2549999999999999,-0.097436308860778809,
5.2575000000000003,-0.094287000596523285,
5.2599999999999998,-0.093926392495632172,
5.2625000000000002,-0.10027309507131577,
5.2649999999999997,-0.1053696870803833,
5.2675000000000001,-0.11027395725250244,
5.2699999999999996,-0.11363963782787323,
5.2725,-0.11111538112163544,
5.2750000000000004,-0.10349452495574951,
5.2774999999999999,-0.091281935572624207,
5.2800000000000002,-0.074862241744995117,
5.2824999999999998,-0.033801000565290451,
5.2850000000000001,-0.012356838211417198,
5.2874999999999996,0.0073804459534585476,
5.29,0.023848216980695724,
5.2925000000000004,0.042695999145507812,
5.2949999999999999,0.044499039649963379,
5.2975000000000003,0.041758418083190918,
5.2999999999999998,0.035363636910915375,
5.3025000000000002,0.016107162460684776,
5.3049999999999997,0.0053369998931884766,
5.3075000000000001,-0.0052167973481118679,
5.3099999999999996,-0.015145540237426758,
5.3125,-0.032935541123151779,
5.3150000000000004,-0.041085284203290939,
5.3174999999999999,-0.049066744744777679,
5.3200000000000003,-0.057072244584560394,
5.3224999999999998,-0.073419809341430664,
5.3250000000000002,-0.081834003329277039,
5.3274999999999997,-0.090368390083312988,
5.3300000000000001,-0.098998948931694031,
5.3324999999999996,-0.11657258123159409,
5.335,-0.12558779120445251,
5.3375000000000004,-0.13481935858726501,
5.3399999999999999,-0.14426729083061218,
5.3425000000000002,-0.16328334808349609,
5.3449999999999998,-0.17234663665294647,
5.3475000000000001,-0.18054446578025818,
5.3499999999999996,-0.18746814131736755,
5.3525,-0.19607464969158173,
5.3550000000000004,-0.19751708209514618,
5.3574999999999999,-0.19734880328178406,
5.3600000000000003,-0.19614677131175995,
5.3624999999999998,-0.1937667578458786,
5.3650000000000002,-0.19417545199394226,
5.3674999999999997,-0.19641122221946716,
5.3700000000000001,-0.20059427618980408,
5.3724999999999996,-0.21345596015453339,
5.375,-0.22074024379253387,
5.3775000000000004,-0.22739946842193604,
5.3799999999999999,-0.23273646831512451,
5.3825000000000003,-0.2376888245344162,
5.3849999999999998,-0.23732821643352509,
5.3875000000000002,-0.23559729754924774,
5.3899999999999997,-0.2330249547958374,
5.3925000000000001,-0.22737543284893036,
5.3949999999999996,-0.22499541938304901,
5.3975,-0.22309622168540955,
5.4000000000000004,-0.22167782485485077,
5.4024999999999999,-0.22023539245128632,
5.4050000000000002,-0.22028347849845886,
5.4074999999999998,-0.22105276584625244,
5.4100000000000001,-0.22268752753734589,
5.4124999999999996,-0.22908231616020203,
5.415,-0.2337702214717865,
5.4175000000000004,-0.23922741413116455,
5.4199999999999999,-0.24506926536560059,
5.4225000000000003,-0.25636833906173706,
5.4249999999999998,-0.26096007227897644,
5.4275000000000002,-0.264445960521698,
5.4299999999999997,-0.26651343703269958,
5.4325000000000001,-0.26596051454544067,
5.4349999999999996,-0.26329201459884644,
5.4375,-0.25920510292053223,
5.4400000000000004,-0.25394022464752197,
5.4424999999999999,-0.24155935645103455,
5.4450000000000003,-0.23547708988189697,
5.4474999999999998,-0.2301400899887085,
5.4500000000000002,-0.22600512206554413,
5.4524999999999997,-0.22225479781627655,
5.4550000000000001,-0.22259137034416199,
5.4574999999999996,-0.22405783832073212,
5.46,-0.22624552249908447,
5.4625000000000004,-0.23098151385784149,
5.4649999999999999,-0.23278455436229706,
5.4675000000000002,-0.2339625358581543,
5.4699999999999998,-0.23449143767356873,
5.4725000000000001,-0.23444335162639618,
5.4749999999999996,-0.23453950881958008,
5.4775,-0.23516456782817841,
5.4800000000000004,-0.23672720789909363,
5.4824999999999999,-0.24304986000061035,
5.4850000000000003,-0.2476656436920166,
5.4874999999999998,-0.25269013643264771,
5.4900000000000002,-0.25749823451042175,
5.4924999999999997,-0.26348432898521423,
5.4950000000000001,-0.26326796412467957,
5.4974999999999996,-0.26040714979171753,
5.5,-0.25490185618400574,
5.5025000000000004,-0.23814558982849121,
5.5049999999999999,-0.22874574363231659,
5.5075000000000003,-0.22011518478393555,
5.5099999999999998,-0.21331171691417694,
5.5125000000000002,-0.20768623054027557,
5.5149999999999997,-0.20908057689666748,
5.5175000000000001,-0.21275877952575684,
5.5199999999999996,-0.21790346503257751,
5.5225,-0.22884190082550049,
5.5250000000000004,-0.23280858993530273,
5.5274999999999999,-0.23492416739463806,
5.5300000000000002,-0.23485204577445984,
5.5324999999999998,-0.22833704948425293,
5.5350000000000001,-0.22268752753734589,
5.5374999999999996,-0.21629273891448975,
5.54,-0.21001815795898438,
5.5425000000000004,-0.20105104148387909,
5.5449999999999999,-0.19968073070049286,
5.5475000000000003,-0.20083467662334442,
5.5499999999999998,-0.20432054996490479,
5.5525000000000002,-0.20970563590526581,
5.5549999999999997,-0.22249519824981689,
5.5575000000000001,-0.22776007652282715,
5.5599999999999996,-0.23100554943084717,
5.5625,-0.22951504588127136,
5.5650000000000004,-0.22497138381004333,
5.5674999999999999,-0.21874487400054932,
5.5700000000000003,-0.21186928451061249,
5.5724999999999998,-0.2007625550031662,
5.5750000000000002,-0.1983344554901123,
5.5774999999999997,-0.19871911406517029,
5.5800000000000001,-0.20184437930583954,
5.5824999999999996,-0.21422526240348816,
5.585,-0.22167782485485077,
5.5875000000000004,-0.22850534319877625,
5.5899999999999999,-0.23367404937744141,
5.5925000000000002,-0.2360059916973114,
5.5949999999999998,-0.23256818950176239,
5.5975000000000001,-0.22634169459342957,
5.5999999999999996,-0.21804770827293396,
5.6025,-0.19944033026695251,
5.6050000000000004,-0.19148290157318115,
5.6074999999999999,-0.18576125800609589,
5.6100000000000003,-0.18290042877197266,
5.6124999999999998,-0.18600165843963623,
5.6150000000000002,-0.19097805023193359,
5.6174999999999997,-0.19710838794708252,
5.6200000000000001,-0.20338296890258789,
5.6224999999999996,-0.21326363086700439,
5.625,-0.2160523384809494,
5.6275000000000004,-0.21747073531150818,
5.6299999999999999,-0.21795153617858887,
5.6325000000000003,-0.21867275238037109,
5.6349999999999998,-0.22009114921092987,
5.6375000000000002,-0.22273561358451843,
5.6399999999999997,-0.22660613059997559,
5.6425000000000001,-0.2314382791519165,
5.6449999999999996,-0.24153530597686768,
5.6475,-0.24526159465312958,
5.6500000000000004,-0.24704059958457947,
5.6524999999999999,-0.24627129733562469,
5.6550000000000002,-0.23615023493766785,
5.6574999999999998,-0.22718310356140137,
5.6600000000000001,-0.21653315424919128,
5.6624999999999996,-0.19446393847465515,
5.665,-0.18540064990520477,
5.6675000000000004,-0.17900586128234863,
5.6699999999999999,-0.17585656046867371,
5.6725000000000003,-0.1760488748550415,
5.6749999999999998,-0.18467943370342255,
5.6775000000000002,-0.19129058718681335,
5.6799999999999997,-0.19804596900939941,
5.6825000000000001,-0.203935906291008,
5.6849999999999996,-0.21083554625511169,
5.6875,-0.21160483360290527,
5.6900000000000004,-0.21095573902130127,
5.6924999999999999,-0.20944118499755859,
5.6950000000000003,-0.20609955489635468,
5.6974999999999998,-0.20501773059368134,
5.7000000000000002,-0.2044888436794281,
5.7024999999999997,-0.20429651439189911,
5.7050000000000001,-0.20376762747764587,
5.7074999999999996,-0.20268580317497253,
5.71,-0.20078659057617188,
5.7125000000000004,-0.19814214110374451,
5.7149999999999999,-0.19189159572124481,
5.7175000000000002,-0.18941542506217957,
5.7199999999999998,-0.18823742866516113,
5.7225000000000001,-0.18886248767375946,
5.7249999999999996,-0.19662758708000183,
5.7275,-0.20333489775657654,
5.7300000000000004,-0.21100382506847382,
5.7324999999999999,-0.21855255961418152,
5.7350000000000003,-0.22867362201213837,
5.7374999999999998,-0.2292025089263916,
5.7400000000000002,-0.22600512206554413,
5.7424999999999997,-0.21908144652843475,
5.7450000000000001,-0.19672374427318573,
5.7474999999999996,-0.18333315849304199,
5.75,-0.17006278038024902,
5.7525000000000004,-0.15794634819030762,
5.7549999999999999,-0.14010827243328094,
5.7575000000000003,-0.13503572344779968,
5.7599999999999998,-0.13253550231456757,
5.7625000000000002,-0.13243934512138367,
5.7649999999999997,-0.13840138912200928,
5.7675000000000001,-0.1438826322555542,
5.7699999999999996,-0.15056590735912323,
5.7725,-0.15809059143066406,
5.7750000000000004,-0.17386119067668915,
5.7774999999999999,-0.18109738826751709,
5.7800000000000002,-0.18734793365001678,
5.7824999999999998,-0.19239644706249237,
5.7850000000000001,-0.19888739287853241,
5.7874999999999996,-0.20073851943016052,
5.79,-0.20206074416637421,
5.7925000000000004,-0.20314256846904755,
5.7949999999999999,-0.20516197383403778,
5.7975000000000003,-0.20590722560882568,
5.7999999999999998,-0.20619571208953857,
5.8025000000000002,-0.20581106841564178,
5.8049999999999997,-0.20263771712779999,
5.8075000000000001,-0.20004133880138397,
5.8099999999999996,-0.19718050956726074,
5.8125,-0.19453606009483337,
5.8150000000000004,-0.19181947410106659,
5.8174999999999999,-0.19268493354320526,
5.8200000000000003,-0.19552171230316162,
5.8224999999999998,-0.2006663978099823,
5.8250000000000002,-0.21888911724090576,
5.8274999999999997,-0.23235182464122772,
5.8300000000000001,-0.24879555404186249,
5.8324999999999996,-0.26805204153060913,
5.835,-0.31295976042747498,
5.8375000000000004,-0.33659160137176514,
5.8399999999999999,-0.35897335410118103,
5.8425000000000002,-0.37808558344841003,
5.8449999999999998,-0.3967650830745697,
5.8475000000000001,-0.39106747508049011,
5.8499999999999996,-0.37188312411308289,
5.8525,-0.3370964527130127,
5.8550000000000004,-0.21547536551952362,
5.8574999999999999,-0.12861689925193787,
5.8600000000000003,-0.026564797386527061,
5.8624999999999998,0.087267160415649414,
5.8650000000000002,0.32974004745483398,
5.8674999999999997,0.44559141993522644,
5.8700000000000001,0.54850900173187256,
5.8724999999999996,0.63168925046920776,
5.875,0.71705722808837891,
5.8775000000000004,0.71272993087768555,
5.8799999999999999,0.67628443241119385,
5.8825000000000003,0.61002874374389648,
5.8849999999999998,0.40779969096183777,
5.8875000000000002,0.28540930151939392,
5.8899999999999997,0.15922050178050995,
5.8925000000000001,0.03675798699259758,
5.8949999999999996,-0.17201006412506104,
5.8975,-0.25002163648605347,
5.9000000000000004,-0.30819973349571228,
5.9024999999999999,-0.34719347953796387,
5.9050000000000002,-0.37760478258132935,
5.9074999999999998,-0.37589788436889648,
5.9100000000000001,-0.3675798773765564,
5.9124999999999996,-0.35560768842697144,
5.915,-0.32803317904472351,
5.9175000000000004,-0.31394541263580322,
5.9199999999999999,-0.29961726069450378,
5.9225000000000003,-0.28471213579177856,
5.9249999999999998,-0.2524256706237793,
5.9275000000000002,-0.23550114035606384,
5.9299999999999997,-0.21905741095542908,
5.9325000000000001,-0.20408014953136444,
5.9349999999999996,-0.1823955774307251,
5.9375,-0.17686626315116882,
5.9400000000000004,-0.17491897940635681,
5.9424999999999999,-0.17597675323486328,
5.9450000000000003,-0.18306872248649597,
5.9474999999999998,-0.18679499626159668,
5.9500000000000002,-0.18931925296783447,
5.9524999999999997,-0.19001643359661102,
5.9550000000000001,-0.18607378005981445,
5.9574999999999996,-0.18256387114524841,
5.96,-0.17939051985740662,
5.9625000000000004,-0.17768363654613495,
5.9649999999999999,-0.18213114142417908,
5.9675000000000002,-0.18893460929393768,
5.9699999999999998,-0.19823829829692841,
5.9725000000000001,-0.20893633365631104,
5.9749999999999996,-0.2284572571516037,
5.9775,-0.23405870795249939,
5.9800000000000004,-0.23530881106853485,
5.9824999999999999,-0.23172676563262939,
5.9850000000000003,-0.21182119846343994,
5.9874999999999998,-0.19780556857585907,
5.9900000000000002,-0.18323700129985809,
5.9924999999999997,-0.16975025832653046,
5.9950000000000001,-0.150686115026474,
5.9974999999999996,-0.14599820971488953,
6,-0.14417111873626709,81.081077575683594
6.0025000000000004,-0.14426729083061218,
6.0049999999999999,-0.14563760161399841,
6.0075000000000003,-0.14467597007751465,
6.0099999999999998,-0.14162282645702362,
6.0125000000000002,-0.1362377405166626,
6.0149999999999997,-0.12005846202373505,
6.0175000000000001,-0.11089901626110077,
6.0199999999999996,-0.10260502994060516,
6.0225,-0.096234284341335297,
6.0250000000000004,-0.092748403549194336,
6.0274999999999999,-0.096138119697570801,
6.0300000000000002,-0.10243674367666245,
6.0324999999999998,-0.11056244373321533,
6.0350000000000001,-0.12664556503295898,
6.0374999999999996,-0.13154983520507812,
6.04,-0.13284802436828613,
6.0425000000000004,-0.13001124560832977,
6.0449999999999999,-0.11315882205963135,
6.0475000000000003,-0.10113855451345444,
6.0499999999999998,-0.088541314005851746,
6.0525000000000002,-0.076809525489807129,
6.0549999999999997,-0.059788823127746582,
6.0575000000000001,-0.055173039436340332,
6.0599999999999996,-0.052648782730102539,
6.0625,-0.051422715187072754,
6.0650000000000004,-0.048513811081647873,
6.0674999999999999,-0.045003890991210938,
6.0700000000000003,-0.039306282997131348,
6.0724999999999998,-0.031372904777526855,
6.0750000000000002,-0.010409554466605186,
6.0774999999999997,0.0011779865017160773,
6.0800000000000001,0.012284716591238976,
6.0824999999999996,0.02199709415435791,
6.085,0.034618377685546875,
6.0875000000000004,0.036782026290893555,
6.0899999999999999,0.036181014031171799,
6.0925000000000002,0.033151905983686447,
6.0949999999999998,0.021900933235883713,
6.0975000000000001,0.01490513514727354,
6.0999999999999996,0.0076929731294512749,
6.1025,0.00050485134124755859,
6.1050000000000004,-0.013727148994803429,
6.1074999999999999,-0.021299919113516808,
6.1100000000000003,-0.02969006821513176,
6.1124999999999998,-0.039186082780361176,
6.1150000000000002,-0.061904393136501312,
6.1174999999999997,-0.074717998504638672,
6.1200000000000001,-0.087844133377075195,
6.1224999999999996,-0.10053753852844238,
6.125,-0.1215970516204834,
6.1275000000000004,-0.12876114249229431,
6.1299999999999999,-0.13328075408935547,
6.1325000000000003,-0.13537228107452393,
6.1349999999999998,-0.13481935858726501,
6.1375000000000002,-0.13436257839202881,
6.1399999999999997,-0.13556461036205292,
6.1425000000000001,-0.13972362875938416,
6.1449999999999996,-0.16039848327636719,
6.1475,-0.17727494239807129,
6.1500000000000004,-0.19754111766815186,
6.1524999999999999,-0.21961033344268799,
6.1550000000000002,-0.26069563627243042,
6.1574999999999998,-0.27524015307426453,
6.1600000000000001,-0.28346201777458191,
6.1624999999999996,-0.28444766998291016,
6.165,-0.26600858569145203,
6.1675000000000004,-0.24939656257629395,
6.1699999999999999,-0.2306930273771286,
6.1725000000000003,-0.21227797865867615,
6.1749999999999998,-0.18429479002952576,
6.1775000000000002,-0.17713069915771484,
6.1799999999999997,-0.17491897940635681,
6.1825000000000001,-0.17715474963188171,
6.1849999999999996,-0.19076168537139893,
6.1875,-0.19975285232067108,
6.1900000000000004,-0.20876805484294891,
6.1924999999999999,-0.21701395511627197,
6.1950000000000003,-0.22980353236198425,
6.1974999999999998,-0.23415486514568329,
6.2000000000000002,-0.23730418086051941,
6.2024999999999997,-0.239371657371521,
6.2050000000000001,-0.24093429744243622,
6.2074999999999996,-0.24052560329437256,
6.21,-0.23939570784568787,
6.2125000000000004,-0.2375926673412323,
6.2149999999999999,-0.2352607250213623,
6.2175000000000002,-0.22985160350799561,
6.2199999999999998,-0.22747159004211426,
6.2225000000000001,-0.22583684325218201,
6.2249999999999996,-0.2252839058637619,
6.2275,-0.22788028419017792,
6.2300000000000004,-0.23066899180412292,
6.2324999999999999,-0.23367404937744141,
6.2350000000000003,-0.2361983060836792,
6.2374999999999998,-0.23653487861156464,
6.2400000000000002,-0.23328940570354462,
6.2424999999999997,-0.22766391932964325,
6.2450000000000001,-0.21196544170379639,
6.2474999999999996,-0.20415227115154266,
6.25,-0.19809405505657196,
6.2525000000000004,-0.19501686096191406,
6.2549999999999999,-0.19573807716369629,
6.2575000000000003,-0.20898441970348358,
6.2599999999999998,-0.22023539245128632,
6.2625000000000002,-0.23295283317565918,
6.2649999999999997,-0.24552604556083679,
6.2675000000000001,-0.26413342356681824,
6.2699999999999996,-0.26778757572174072,
6.2725,-0.26689809560775757,
6.2750000000000004,-0.26158511638641357,
6.2774999999999999,-0.240669846534729,
6.2800000000000002,-0.2276158332824707,
6.2824999999999998,-0.21487435698509216,
6.2850000000000001,-0.20395994186401367,
6.2874999999999996,-0.1921800822019577,
6.29,-0.19237241148948669,
6.2925000000000004,-0.19638717174530029,
6.2949999999999999,-0.20335893332958221,
6.2975000000000003,-0.22093257308006287,
6.2999999999999998,-0.22862553596496582,
6.3025000000000002,-0.23398658633232117,
6.3049999999999997,-0.23631851375102997,
6.3075000000000001,-0.23196718096733093,
6.3099999999999996,-0.22663018107414246,
6.3125,-0.22059600055217743,
6.3150000000000004,-0.21521091461181641,
6.3174999999999999,-0.21035473048686981,
6.3200000000000003,-0.21201352775096893,
6.3224999999999998,-0.21636486053466797,
6.3250000000000002,-0.22283177077770233,
6.3274999999999997,-0.23802539706230164,
6.3300000000000001,-0.24437209963798523,
6.3324999999999996,-0.24833878874778748,
6.335,-0.2491561621427536,
6.3375000000000004,-0.24033328890800476,
6.3399999999999999,-0.2314382791519165,
6.3425000000000002,-0.2207162082195282,
6.3449999999999998,-0.20948927104473114,
6.3475000000000001,-0.19066552817821503,
6.3499999999999996,-0.18506407737731934,
6.3525,-0.18261194229125977,
6.3550000000000004,-0.18321296572685242,
6.3574999999999999,-0.19083380699157715,
6.3600000000000003,-0.19605061411857605,
6.3624999999999998,-0.20102700591087341,
6.3650000000000002,-0.2051379382610321,
6.3674999999999997,-0.21028260886669159,
6.3700000000000001,-0.21174907684326172,
6.3724999999999996,-0.21302323043346405,
6.375,-0.21448969841003418,
6.3775000000000004,-0.21850447356700897,
6.3799999999999999,-0.2207162082195282,
6.3825000000000003,-0.22251924872398376,
6.3849999999999998,-0.22348086535930634,
6.3875000000000002,-0.22148549556732178,
6.3899999999999997,-0.21843235194683075,
6.3925000000000001,-0.21432141959667206,
6.3949999999999996,-0.20972967147827148,
6.3975,-0.20133952796459198,
6.4000000000000004,-0.19867102801799774,
6.4024999999999999,-0.19746899604797363,
6.4050000000000002,-0.19785365462303162,
6.4074999999999998,-0.20246943831443787,
6.4100000000000001,-0.20583510398864746,
6.4124999999999996,-0.20910462737083435,
6.415,-0.21177312731742859,
6.4175000000000004,-0.21374444663524628,
6.4199999999999999,-0.21285495162010193,
6.4225000000000003,-0.21095573902130127,
6.4249999999999998,-0.20845553278923035,
6.4275000000000002,-0.20352721214294434,
6.4299999999999997,-0.20174822211265564,
6.4325000000000001,-0.20052215456962585,
6.4349999999999996,-0.19965669512748718,
6.4375,-0.19739687442779541,
6.4400000000000004,-0.19528131186962128,
6.4424999999999999,-0.19234836101531982,
6.4450000000000003,-0.18881440162658691,
6.4474999999999998,-0.18261194229125977,
6.4500000000000002,-0.18162629008293152,
6.4524999999999997,-0.18306872248649597,
6.4550000000000001,-0.18732389807701111,
6.4574999999999996,-0.20367145538330078,
6.46,-0.21424929797649384,
6.4625000000000004,-0.22485117614269257,
6.4649999999999999,-0.23413082957267761,
6.4675000000000002,-0.24446825683116913,
6.4699999999999998,-0.24425189197063446,
6.4725000000000001,-0.24045348167419434,
6.4749999999999996,-0.23360192775726318,
6.4775,-0.21475414931774139,
6.4800000000000004,-0.20504176616668701,
6.4824999999999999,-0.19657950103282928,
6.4850000000000003,-0.19013664126396179,
6.4874999999999998,-0.18455922603607178,
6.4900000000000002,-0.18511216342449188,
6.4924999999999997,-0.18708348274230957,
6.4950000000000001,-0.18970391154289246,
6.4974999999999996,-0.19362251460552216,
6.5,-0.1937667578458786,
6.5025000000000004,-0.19249260425567627,
6.5049999999999999,-0.1900404691696167,
6.5075000000000003,-0.18419861793518066,
6.5099999999999998,-0.1822994202375412,
6.5125000000000002,-0.18191477656364441,
6.5149999999999997,-0.18333315849304199,
6.5175000000000001,-0.19073764979839325,
6.5199999999999996,-0.19540151953697205,
6.5225,-0.19944033026695251,
6.5250000000000004,-0.20194053649902344,
6.5274999999999999,-0.19948840141296387,
6.5300000000000002,-0.19412736594676971,
6.5324999999999998,-0.18643438816070557,
6.5350000000000001,-0.17727494239807129,
6.5374999999999996,-0.15946090221405029,
6.54,-0.15347480773925781,
6.5425000000000004,-0.15102267265319824,
6.5449999999999999,-0.15282571315765381,
6.5475000000000003,-0.16955792903900146,
6.5499999999999998,-0.18321296572685242,
6.5525000000000002,-0.19859890639781952,
6.5549999999999997,-0.21388868987560272,
6.5575000000000001,-0.23670315742492676,
6.5599999999999996,-0.24112662672996521,
6.5625,-0.23978035151958466,
6.5650000000000004,-0.23271243274211884,
6.5674999999999999,-0.20528218150138855,
6.5700000000000003,-0.18811723589897156,
6.5724999999999998,-0.17114460468292236,
6.5750000000000002,-0.15599906444549561,
6.5774999999999997,-0.13578097522258759,
6.5800000000000001,-0.1314777135848999,
6.5824999999999996,-0.13066034018993378,
6.585,-0.13258358836174011,
6.5875000000000004,-0.14068524539470673,
6.5899999999999999,-0.14501254260540009,
6.5925000000000002,-0.14869074523448944,
6.5949999999999998,-0.15140733122825623,
6.5975000000000001,-0.15424410998821259,
6.5999999999999996,-0.15498936176300049,
6.6025,-0.15592694282531738,
6.6050000000000004,-0.15751361846923828,
6.6074999999999999,-0.16407668590545654,
6.6100000000000003,-0.16929349303245544,
6.6124999999999998,-0.17556807398796082,
6.6150000000000002,-0.18261194229125977,
6.6174999999999997,-0.19691607356071472,
6.6200000000000001,-0.20316660404205322,
6.6224999999999996,-0.20835936069488525,
6.625,-0.21220585703849792,
6.6275000000000004,-0.21590809524059296,
6.6299999999999999,-0.21598021686077118,
6.6325000000000003,-0.21513879299163818,
6.6349999999999998,-0.21364828944206238,
6.6375000000000002,-0.20992200076580048,
6.6399999999999997,-0.2085036039352417,
6.6425000000000001,-0.20811896026134491,
6.6449999999999996,-0.20946523547172546,
6.6475,-0.22016327083110809,
6.6500000000000004,-0.23066899180412292,
6.6524999999999999,-0.24480482935905457,
6.6550000000000002,-0.26228231191635132,
6.6574999999999998,-0.30331951379776001,
6.6600000000000001,-0.32389819622039795,
6.6624999999999996,-0.34200072288513184,
6.665,-0.35551151633262634,
6.6675000000000004,-0.36056002974510193,
6.6699999999999999,-0.34815511107444763,
6.6725000000000003,-0.32348951697349548,
6.6749999999999998,-0.28509676456451416,
6.6775000000000002,-0.16361992061138153,
6.6799999999999997,-0.080367527902126312,
6.6825000000000001,0.016371607780456543,
6.6849999999999996,0.12400110810995102,
6.6875,0.354429692029953,
6.6900000000000004,0.46547293663024902,
6.6924999999999999,0.56456804275512695,
6.6950000000000003,0.6446230411529541,
6.6974999999999998,0.72335582971572876,
6.7000000000000002,0.71412426233291626,
6.7024999999999997,0.67104363441467285,
6.7050000000000001,0.59637367725372314,
6.7074999999999996,0.37366211414337158,
6.71,0.24112662672996521,
6.7125000000000004,0.10649959743022919,
6.7149999999999999,-0.021444162353873253,
6.7175000000000002,-0.22869765758514404,
6.7199999999999998,-0.29916048049926758,
6.7225000000000001,-0.34587126970291138,
6.7249999999999996,-0.37063300609588623,
6.7275,-0.37022432684898376,
6.7300000000000004,-0.35512685775756836,
6.7324999999999999,-0.33663970232009888,
6.7350000000000003,-0.31853717565536499,
6.7374999999999998,-0.29151558876037598,
6.7400000000000002,-0.28314948081970215,
6.7424999999999997,-0.27687489986419678,
6.7450000000000001,-0.27108114957809448,
6.7474999999999996,-0.25547882914543152,
6.75,-0.24444422125816345,
6.7525000000000004,-0.23160657286643982,
6.7549999999999999,-0.21807174384593964,
6.7575000000000003,-0.1946081817150116,
6.7599999999999998,-0.18727581202983856,
6.7625000000000002,-0.183982253074646,
6.7649999999999997,-0.18472751975059509,
6.7675000000000001,-0.19578616321086884,
6.7699999999999996,-0.20371954143047333,
6.7725,-0.21138846874237061,
6.7750000000000004,-0.2176390141248703,
6.7774999999999999,-0.22283177077770233,
6.7800000000000002,-0.22153358161449432,
6.7824999999999998,-0.2182881087064743,
6.7850000000000001,-0.2139127254486084,
6.7874999999999996,-0.205426424741745,
6.79,-0.20256559550762177,
6.7925000000000004,-0.20083467662334442,
6.7949999999999999,-0.19984900951385498,
6.7975000000000003,-0.19891142845153809,
6.7999999999999998,-0.19391100108623505,
6.8025000000000002,-0.18862208724021912,
6.8049999999999997,-0.18133780360221863,
6.8075000000000001,-0.17261108756065369,
6.8099999999999996,-0.15484511852264404,
6.8125,-0.14820992946624756,
6.8150000000000004,-0.14448365569114685,
6.8174999999999999,-0.14421920478343964,
6.8200000000000003,-0.15330652892589569,
6.8224999999999998,-0.16097545623779297,
6.8250000000000002,-0.16898095607757568,
6.8274999999999997,-0.17590463161468506,
6.8300000000000001,-0.18184265494346619,
6.8324999999999996,-0.17951071262359619,
6.835,-0.17364482581615448,
6.8375000000000004,-0.16477386653423309,
6.8399999999999999,-0.14200747013092041,
6.8425000000000002,-0.13051609694957733,
6.8449999999999998,-0.12046714872121811,
6.8475000000000001,-0.11282225698232651,
6.8499999999999996,-0.1063072681427002,
6.8525,-0.10724484920501709,
6.8550000000000004,-0.110129714012146,
6.8574999999999999,-0.11407236754894257,
6.8600000000000003,-0.12080371379852295,
6.8624999999999998,-0.12181341648101807,
6.8650000000000002,-0.1205633133649826,
6.8674999999999997,-0.11698126792907715,
6.8700000000000001,-0.10433594882488251,
6.8724999999999996,-0.09654681384563446,
6.875,-0.088637471199035645,
6.8775000000000004,-0.081184908747673035,
6.8799999999999999,-0.068347260355949402,
6.8825000000000003,-0.062673687934875488,
6.8849999999999998,-0.056976079940795898,
6.8875000000000002,-0.050845742225646973,
6.8899999999999997,-0.035772323608398438,
6.8925000000000001,-0.026636919006705284,
6.8949999999999996,-0.016660094261169434,
6.8975,-0.0064188241958618164,
6.9000000000000004,0.012044310569763184,
6.9024999999999999,0.018751621246337891,
6.9050000000000002,0.02291063591837883,
6.9074999999999998,0.024208825081586838,
6.9100000000000001,0.018607378005981445,
6.9124999999999996,0.01276552677154541,
6.915,0.0060822567902505398,
6.9175000000000004,-0.00052889192011207342,
6.9199999999999999,-0.010481676086783409,
6.9225000000000003,-0.013318459503352642,
6.9249999999999998,-0.015193621627986431,
6.9275000000000002,-0.016972621902823448,
6.9299999999999997,-0.02490600012242794,
6.9325000000000001,-0.033151905983686447,
6.9349999999999996,-0.044955812394618988,
6.9375,-0.060245595872402191,
6.9400000000000004,-0.097364187240600586,
6.9424999999999999,-0.11626005172729492,
6.9450000000000003,-0.13313651084899902,
6.9474999999999998,-0.14652709662914276,
6.9500000000000002,-0.15938878059387207,
6.9524999999999997,-0.15869161486625671,
6.9550000000000001,-0.15424410998821259,
6.9574999999999996,-0.14739255607128143,
6.96,-0.1330643892288208,
6.9625000000000004,-0.12885729968547821,
6.9649999999999999,-0.12837648391723633,
6.9675000000000002,-0.13236722350120544,
6.9699999999999998,-0.15412390232086182,
6.9725000000000001,-0.17056763172149658,
6.9749999999999996,-0.18907885253429413,
6.9775,-0.20809492468833923,
6.9800000000000004,-0.24103045463562012,
6.9824999999999999,-0.25225740671157837,
6.9850000000000003,-0.25891661643981934,
6.9874999999999998,-0.26088795065879822,
6.9900000000000002,-0.2529786229133606,
6.9924999999999997,-0.2452375590801239,
6.9950000000000001,-0.23677527904510498,
6.9974999999999996,-0.22898614406585693,
7,-0.21941801905632019,79.696395874023438
7.0025000000000004,-0.21886508166790009,
7.0049999999999999,-0.22119700908660889,
7.0075000000000003,-0.22600512206554413,
7.0099999999999998,-0.23970822989940643,
7.0125000000000002,-0.24653574824333191,
7.0149999999999997,-0.25189679861068726,
7.0175000000000001,-0.25499802827835083,
7.0199999999999996,-0.25240164995193481,
7.0225,-0.2468242347240448,
7.0250000000000004,-0.23910722136497498,
7.0274999999999999,-0.23021221160888672,
7.0300000000000002,-0.21326363086700439,
7.0324999999999998,-0.20713329315185547,
7.0350000000000001,-0.20338296890258789,
7.0374999999999996,-0.2022530734539032,
7.04,-0.20674864947795868,
7.0425000000000004,-0.21134039759635925,
7.0449999999999999,-0.21662931144237518,
7.0475000000000003,-0.22213459014892578,
7.0499999999999998,-0.2323758602142334,
7.0525000000000002,-0.23679932951927185,
7.0549999999999997,-0.240669846534729,
7.0575000000000001,-0.24396340548992157,
7.0599999999999996,-0.24831473827362061,
7.0625,-0.24908404052257538,
7.0650000000000004,-0.24881958961486816,
7.0674999999999999,-0.24749736487865448,
7.0700000000000003,-0.24266521632671356,
7.0724999999999998,-0.23990055918693542,
7.0750000000000002,-0.23752054572105408,
7.0774999999999997,-0.23598194122314453,
7.0800000000000001,-0.23658296465873718,
7.0824999999999996,-0.23877064883708954,
7.085,-0.24196803569793701,
7.0875000000000004,-0.24571835994720459,
7.0899999999999999,-0.25256991386413574,
7.0925000000000002,-0.2544691264629364,
7.0949999999999998,-0.2546614408493042,
7.0975000000000001,-0.25285840034484863,
7.0999999999999996,-0.24314603209495544,
7.1025,-0.23593387007713318,
7.1050000000000004,-0.22792837023735046,
7.1074999999999999,-0.21999499201774597,
7.1100000000000003,-0.20737370848655701,
7.1124999999999998,-0.20381569862365723,
7.1150000000000002,-0.20242135226726532,
7.1174999999999997,-0.20304641127586365,
7.1200000000000001,-0.20855168998241425,
7.1224999999999996,-0.21230201423168182,
7.125,-0.21602830290794373,
7.1275000000000004,-0.21936993300914764,
7.1299999999999999,-0.22477905452251434,
7.1325000000000003,-0.22703886032104492,
7.1349999999999998,-0.22917847335338593,
7.1375000000000002,-0.23139020800590515,
7.1399999999999997,-0.23552517592906952,
7.1425000000000001,-0.23696760833263397,
7.1449999999999996,-0.23752054572105408,
7.1475,-0.2368474006652832,
7.1500000000000004,-0.23102959990501404,
7.1524999999999999,-0.22588491439819336,
7.1550000000000002,-0.21961033344268799,
7.1574999999999998,-0.21273474395275116,
7.1600000000000001,-0.19958457350730896,
7.1624999999999996,-0.19477646052837372,
7.165,-0.19203583896160126,
7.1675000000000004,-0.19184350967407227,
7.1699999999999999,-0.19956052303314209,
7.1725000000000003,-0.20686885714530945,
7.1749999999999998,-0.21547536551952362,
7.1775000000000002,-0.22432228922843933,
7.1799999999999997,-0.23800134658813477,
7.1825000000000001,-0.24083814024925232,
7.1849999999999996,-0.24023711681365967,
7.1875,-0.2361983060836792,
7.1900000000000004,-0.22033154964447021,
7.1924999999999999,-0.2105470597743988,
7.1950000000000003,-0.20121932029724121,
7.1974999999999998,-0.19347827136516571,
7.2000000000000002,-0.18580934405326843,
7.2024999999999997,-0.18653056025505066,
7.2050000000000001,-0.18999239802360535,
7.2074999999999996,-0.19564191997051239,
7.21,-0.21004220843315125,
7.2125000000000004,-0.21701395511627197,
7.2149999999999999,-0.22271156311035156,
7.2175000000000002,-0.22655805945396423,
7.2199999999999998,-0.22812068462371826,
7.2225000000000001,-0.22444248199462891,
7.2249999999999996,-0.21982669830322266,
7.2275,-0.21412909030914307,
7.2300000000000004,-0.20242135226726532,
7.2324999999999999,-0.19770941138267517,
7.2350000000000003,-0.19434373080730438,
7.2374999999999998,-0.19254069030284882,
7.2400000000000002,-0.1931176632642746,
7.2424999999999997,-0.19499282538890839,
7.2450000000000001,-0.1974930465221405,
7.2474999999999996,-0.20030578970909119,
7.25,-0.20612359046936035,
7.2525000000000004,-0.20876805484294891,
7.2549999999999999,-0.21109998226165771,
7.2575000000000003,-0.2128789871931076,
7.2599999999999998,-0.21408101916313171,
7.2625000000000002,-0.21314343810081482,
7.2649999999999997,-0.21107594668865204,
7.2675000000000001,-0.20804683864116669,
7.2699999999999996,-0.20018558204174042,
7.2725,-0.19629101455211639,
7.2750000000000004,-0.19306957721710205,
7.2774999999999999,-0.19100210070610046,
7.2800000000000002,-0.19165119528770447,
7.2824999999999998,-0.1946081817150116,
7.2850000000000001,-0.1992720365524292,
7.2874999999999996,-0.20535430312156677,
7.29,-0.22004306316375732,
7.2925000000000004,-0.22742351889610291,
7.2949999999999999,-0.2338663786649704,
7.2975000000000003,-0.23862640559673309,
7.2999999999999998,-0.24054965376853943,
7.3025000000000002,-0.23701569437980652,
7.3049999999999997,-0.23057281970977783,
7.3075000000000001,-0.22174994647502899,
7.3099999999999996,-0.20045003294944763,
7.3125,-0.19008855521678925,
7.3150000000000004,-0.18124163150787354,
7.3174999999999999,-0.17463049292564392,
7.3200000000000003,-0.16912519931793213,
7.3224999999999998,-0.16982237994670868,
7.3250000000000002,-0.17208218574523926,
7.3274999999999997,-0.17515937983989716,
7.3300000000000001,-0.18128971755504608,
7.3324999999999996,-0.18342933058738708,
7.335,-0.18482367694377899,
7.3375000000000004,-0.18566510081291199,
7.3399999999999999,-0.18739601969718933,
7.3425000000000002,-0.18934330344200134,
7.3449999999999998,-0.19254069030284882,
7.3475000000000001,-0.19722859561443329,
7.3499999999999996,-0.21006624400615692,
7.3525,-0.2168937623500824,
7.3550000000000004,-0.22256731986999512,
7.3574999999999999,-0.22586087882518768,
7.3600000000000003,-0.22110085189342499,
7.3624999999999998,-0.21189332008361816,
7.3650000000000002,-0.19840657711029053,
7.3674999999999997,-0.18162629008293152,
7.3700000000000001,-0.14494042098522186,
7.3724999999999996,-0.1290496289730072,
7.375,-0.11736591905355453,
7.3775000000000004,-0.11123558133840561,
7.3799999999999999,-0.1175822839140892,
7.3825000000000003,-0.12909770011901855,
7.3849999999999998,-0.1444355696439743,
7.3875000000000002,-0.16188900172710419,
7.3899999999999997,-0.17953476309776306,
7.3925000000000001,-0.20896038413047791,
7.3949999999999996,-0.21852850914001465,
7.3975,-0.22412995994091034,
7.4000000000000004,-0.22595703601837158,
7.4024999999999999,-0.22122105956077576,
7.4050000000000002,-0.21672546863555908,
7.4074999999999998,-0.2122298926115036,
7.4100000000000001,-0.20857572555541992,
7.4124999999999996,-0.20585915446281433,
7.415,-0.20689289271831512,
7.4175000000000004,-0.20917674899101257,
7.4199999999999999,-0.21215777099132538,
7.4225000000000003,-0.21852850914001465,
7.4249999999999998,-0.22158166766166687,
7.4275000000000002,-0.22482714056968689,
7.4299999999999997,-0.22884190082550049,
7.4325000000000001,-0.242160364985466,
7.4349999999999996,-0.25281032919883728,
7.4375,-0.26660960912704468,
7.4400000000000004,-0.28336584568023682,
7.4424999999999999,-0.32202303409576416,
7.4450000000000003,-0.34075063467025757,
7.4474999999999998,-0.35613656044006348,
7.4500000000000002,-0.36560854315757751,
7.4524999999999997,-0.35587212443351746,
7.4550000000000001,-0.33166331052780151,
7.4574999999999996,-0.29202044010162354,
7.46,-0.23595790565013885,
7.4625000000000004,-0.076328717172145844,
7.4649999999999999,0.023175081238150597,
7.4675000000000002,0.1308286190032959,
7.4699999999999998,0.24146318435668945,
7.4725000000000001,0.44700980186462402,
7.4749999999999996,0.52925252914428711,
7.4775,0.59009909629821777,
7.4800000000000004,0.62517428398132324,
7.4824999999999999,0.60904306173324585,
7.4850000000000003,0.55822134017944336,
7.4874999999999998,0.48254173994064331,
7.4900000000000002,0.38690847158432007,
7.4924999999999997,0.1614081859588623,
7.4950000000000001,0.045749150216579437,
7.4974999999999996,-0.062817931175231934,
7.5,-0.15859544277191162,
7.5025000000000004,-0.29678046703338623,
7.5049999999999999,-0.33630311489105225,
7.5075000000000003,-0.35721838474273682,
7.5099999999999998,-0.3622668981552124,
7.5125000000000002,-0.33995729684829712,
7.5149999999999997,-0.32074889540672302,
7.5175000000000001,-0.30101162195205688,
7.5199999999999996,-0.28331777453422546,
7.5225,-0.25942146778106689,
7.5250000000000004,-0.25367578864097595,
7.5274999999999999,-0.25124770402908325,
7.5300000000000002,-0.25107941031455994,
7.5324999999999998,-0.25333923101425171,
7.5350000000000001,-0.25398832559585571,
7.5374999999999996,-0.25357961654663086,
7.54,-0.25175255537033081,
7.5425000000000004,-0.24345855414867401,
7.5449999999999999,-0.23699164390563965,
7.5475000000000003,-0.22915443778038025,
7.5499999999999998,-0.22016327083110809,
7.5525000000000002,-0.20006537437438965,
7.5549999999999997,-0.18982410430908203,
7.5575000000000001,-0.1801598072052002,
7.5599999999999996,-0.17169754207134247,
7.5625,-0.16059081256389618,
7.5650000000000004,-0.15883585810661316,
7.5674999999999999,-0.15984556078910828,
7.5700000000000003,-0.16352376341819763,
7.5724999999999998,-0.17664989829063416,
7.5750000000000002,-0.18427073955535889,
7.5774999999999997,-0.19109825789928436,
7.5800000000000001,-0.1959063708782196,
7.5824999999999996,-0.19595444202423096,
7.585,-0.19044916331768036,
7.5875000000000004,-0.1815541684627533,
7.5899999999999999,-0.17020702362060547,
7.5925000000000002,-0.14544527232646942,
7.5949999999999998,-0.13496360182762146,
7.5975000000000001,-0.12741486728191376,
7.5999999999999996,-0.12359242141246796,
7.6025,-0.12724658846855164,
7.6050000000000004,-0.13354520499706268,
7.6074999999999999,-0.14123818278312683,
7.6100000000000003,-0.14895519614219666,
7.6124999999999998,-0.15885989367961884,
7.6150000000000002,-0.15902817249298096,
7.6174999999999997,-0.15544614195823669,
7.6200000000000001,-0.14837822318077087,
7.6224999999999996,-0.12729465961456299,
7.625,-0.11604368686676025,
7.6275000000000004,-0.10633131116628647,
7.6299999999999999,-0.099479757249355316,
7.6325000000000003,-0.097027622163295746,
7.6349999999999998,-0.10113855451345444,
7.6375000000000002,-0.1075093001127243,
7.6399999999999997,-0.1145050972700119,
7.6425000000000001,-0.12313564866781235,
7.6449999999999996,-0.12178938090801239,
7.6475,-0.11561095714569092,
7.6500000000000004,-0.10469655692577362,
7.6524999999999999,-0.07277071475982666,
7.6550000000000002,-0.054908595979213715,
7.6574999999999998,-0.038176380097866058,
7.6600000000000001,-0.024040540680289268,
7.6624999999999996,-0.0071881217882037163,
7.665,-0.004784067627042532,
7.6675000000000004,-0.0056014461442828178,
7.6699999999999999,-0.0085824728012084961,
7.6725000000000003,-0.016107162460684776,
7.6749999999999998,-0.018415054306387901,
7.6775000000000002,-0.018751621246337891,
7.6799999999999997,-0.016804337501525879,
7.6825000000000001,-0.0071160001680254936,
7.6849999999999996,-0.00074525678064674139,
7.6875,0.0054812431335449219,
7.6900000000000004,0.010625919327139854,
7.6924999999999999,0.015265743248164654,
7.6950000000000003,0.014376243576407433,
7.6974999999999998,0.011611580848693848,
7.7000000000000002,0.0076208515092730522,
7.7024999999999997,-0.0013703107833862305,
7.7050000000000001,-0.0053369998931884766,
7.7074999999999996,-0.0086305541917681694,
7.71,-0.011539459228515625,
7.7125000000000004,-0.018126567825675011,
7.7149999999999999,-0.023030837997794151,
7.7175000000000002,-0.029762189835309982,
7.7199999999999998,-0.038488905876874924,
7.7225000000000001,-0.061423581093549728,
7.7249999999999996,-0.074693962931632996,
7.7275,-0.088300906121730804,
7.7300000000000004,-0.10159532725811005,
7.7324999999999999,-0.12510697543621063,
7.7350000000000003,-0.13469915091991425,
7.7374999999999998,-0.14277677237987518,
7.7400000000000002,-0.14946004748344421,
7.7424999999999997,-0.15965323150157928,
7.7450000000000001,-0.16388437151908875,
7.7474999999999996,-0.16799530386924744,
7.75,-0.17237067222595215,
7.7525000000000004,-0.18251578509807587,
