Data Set 1:Time(s),Data Set 1:EKG(mV),Data Set 1:Heart Rate(bpm)
0,-0.080439649522304535,88.23529052734375
0.0025000000000000001,-0.083204314112663269,
0.0050000000000000001,-0.086521908640861511,
0.0074999999999999997,-0.089791417121887207,
0.01,-0.092435881495475769,
0.012500000000000001,-0.094118714332580566,
0.014999999999999999,-0.09334941953420639,
0.017500000000000002,-0.092027187347412109,
0.02,-0.090753041207790375,
0.022499999999999999,-0.089406773447990417,
0.025000000000000001,-0.089502930641174316,
0.0275,-0.090079903602600098,
0.029999999999999999,-0.091065570712089539,
0.032500000000000001,-0.09414275735616684,
0.035000000000000003,-0.09625832736492157,
0.037499999999999999,-0.098854705691337585,
0.040000000000000001,-0.10195593535900116,
0.042500000000000003,-0.10943254083395004,
0.044999999999999998,-0.11339922994375229,
0.047500000000000001,-0.11700531095266342,
0.050000000000000003,-0.11984209716320038,
0.052499999999999998,-0.12176533788442612,
0.055,-0.12037098407745361,
0.057500000000000002,-0.11738996207714081,
0.059999999999999998,-0.11299054324626923,
0.0625,-0.10137896239757538,
0.065000000000000002,-0.095128417015075684,
0.067500000000000004,-0.089166365563869476,
0.070000000000000007,-0.083949565887451172,
0.072499999999999995,-0.077194176614284515,
0.074999999999999997,-0.076040230691432953,
0.077499999999999999,-0.076472960412502289,
0.080000000000000002,-0.078324079513549805,
0.082500000000000004,-0.085223719477653503,
0.085000000000000006,-0.089406773447990417,
0.087499999999999994,-0.09339749813079834,
0.089999999999999997,-0.096739135682582855,
0.092499999999999999,-0.10000865161418915,
0.095000000000000001,-0.099696122109889984,
0.097500000000000003,-0.098205611109733582,
0.10000000000000001,-0.09584963321685791,
0.10249999999999999,-0.090127989649772644,
0.105,-0.087507568299770355,
0.1075,-0.085416041314601898,
0.11,-0.083901487290859222,
0.1125,-0.082963906228542328,
0.115,-0.082242690026760101,
0.11749999999999999,-0.082122489809989929,
0.12,-0.082026325166225433,
0.1225,-0.08200228214263916,
0.125,-0.082242690026760101,
0.1275,-0.082723498344421387,
0.13,-0.083516836166381836,
0.13250000000000001,-0.084598660469055176,
0.13500000000000001,-0.087050795555114746,
0.13750000000000001,-0.088060498237609863,
0.14000000000000001,-0.088637471199035645,
0.14249999999999999,-0.088661514222621918,
0.14499999999999999,-0.086882516741752625,
0.14749999999999999,-0.085271798074245453,
0.14999999999999999,-0.083396635949611664,
0.1525,-0.081521473824977875,
0.155,-0.078588530421257019,
0.1575,-0.077819228172302246,
0.16,-0.077602863311767578,
0.16250000000000001,-0.078564487397670746,
0.16500000000000001,-0.079478025436401367,
0.16750000000000001,-0.080463692545890808,
0.17000000000000001,-0.08132915198802948,
0.17249999999999999,-0.082074403762817383,
0.17499999999999999,-0.081737838685512543,
0.17749999999999999,-0.080896422266960144,
0.17999999999999999,-0.079453989863395691,
0.1825,-0.077458620071411133,
0.185,-0.071905255317687988,
0.1875,-0.068443417549133301,
0.19,-0.064669057726860046,
0.1925,-0.056903958320617676,
0.19500000000000001,-0.053466163575649261,
0.19750000000000001,-0.050725542008876801,
0.20000000000000001,-0.048970580101013184,
0.20250000000000001,-0.04844168946146965,
0.20499999999999999,-0.051326554268598557,
0.20749999999999999,-0.054427783936262131,
0.20999999999999999,-0.058105986565351486,
0.21249999999999999,-0.061880350112915039,
0.215,-0.067169271409511566,
0.2175,-0.067674122750759125,
0.22,-0.066255733370780945,
0.2225,-0.062817931175231934,
0.22500000000000001,-0.050485134124755859,
0.22750000000000001,-0.042311351746320724,
0.23000000000000001,-0.033488474786281586,
0.23250000000000001,-0.02461751364171505,
0.23499999999999999,-0.0089671220630407333,
0.23749999999999999,-0.0031493108253926039,
0.23999999999999999,0.00079333782196044922,
0.24249999999999999,0.0026684999465942383,
0.245,2.4040540665737353e-05,
0.2475,-0.0041830539703369141,
0.25,-0.0099287433549761772,
0.2525,-0.016660094261169434,
0.255,-0.031036337837576866,
0.25750000000000001,-0.037599407136440277,
0.26000000000000001,-0.043200850486755371,
0.26250000000000001,-0.047600269317626953,
0.26500000000000001,-0.053033433854579926,
0.26750000000000002,-0.054572027176618576,
0.27000000000000002,-0.055870216339826584,
0.27250000000000002,-0.057432852685451508,
0.27500000000000002,-0.062697730958461761,
0.27750000000000002,-0.066688463091850281,
0.28000000000000003,-0.071376368403434753,
0.28249999999999997,-0.076280638575553894,
0.28499999999999998,-0.084502503275871277,
0.28749999999999998,-0.086497865617275238,
0.28999999999999998,-0.086497865617275238,
0.29249999999999998,-0.084334217011928558,
0.29499999999999998,-0.075078606605529785,
0.29749999999999999,-0.069693528115749359,
0.29999999999999999,-0.065486431121826172,
0.30249999999999999,-0.06394784152507782,
0.30499999999999999,-0.074165068566799164,
0.3075,-0.087844133377075195,
0.31,-0.1076054573059082,
0.3125,-0.13299226760864258,
0.315,-0.19511303305625916,
0.3175,-0.22754371166229248,
0.32000000000000001,-0.25716167688369751,
0.32250000000000001,-0.28064927458763123,
0.32500000000000001,-0.29507359862327576,
0.32750000000000001,-0.27903854846954346,
0.33000000000000002,-0.24333834648132324,
0.33250000000000002,-0.18561701476573944,
0.33500000000000002,-0.00033656758023425937,
0.33750000000000002,0.12556374073028564,
0.34000000000000002,0.26951849460601807,
0.34250000000000003,0.42607051134109497,
0.34499999999999997,0.74653089046478271,
0.34749999999999998,0.892192542552948,
0.34999999999999998,1.0153042078018188,
0.35249999999999998,1.1070429086685181,
0.35499999999999998,1.1702214479446411,
0.35749999999999998,1.1354588270187378,
0.35999999999999999,1.0577597618103027,
0.36249999999999999,0.942268967628479,
0.36499999999999999,0.63190561532974243,
0.36749999999999999,0.45838099718093872,
0.37,0.28762102127075195,
0.3725,0.12981891632080078,
0.375,-0.11635621637105942,
0.3775,-0.19624292850494385,
0.38,-0.24641554057598114,
0.38250000000000001,-0.26942235231399536,
0.38500000000000001,-0.25276225805282593,
0.38750000000000001,-0.2246348112821579,
0.39000000000000001,-0.19092997908592224,
0.39250000000000002,-0.15652796626091003,
0.39500000000000002,-0.098902784287929535,
0.39750000000000002,-0.079093381762504578,
0.40000000000000002,-0.06565471738576889,
0.40250000000000002,-0.05784153938293457,
0.40500000000000003,-0.053850810974836349,
0.40749999999999997,-0.054932635277509689,
0.40999999999999998,-0.056447189301252365,
0.41249999999999998,-0.057601135224103928,
0.41499999999999998,-0.057120323181152344,
0.41749999999999998,-0.055317282676696777,
0.41999999999999998,-0.052624743431806564,
0.42249999999999999,-0.049307148903608322,
0.42499999999999999,-0.041782461106777191,
0.42749999999999999,-0.038032136857509613,
0.42999999999999999,-0.034546256065368652,
0.4325,-0.031493108719587326,
0.435,-0.027165811508893967,
0.4375,-0.026059946045279503,
0.44,-0.02569933794438839,
0.4425,-0.025939743965864182,
0.44500000000000001,-0.027382176369428635,
0.44750000000000001,-0.027814906090497971,
0.45000000000000001,-0.027550458908081055,
0.45250000000000001,-0.026228230446577072,
0.45500000000000002,-0.019857486709952354,
0.45750000000000002,-0.015049378387629986,
0.46000000000000002,-0.0097364187240600586,
0.46250000000000002,-0.0044475002214312553,
0.46500000000000002,0.0036060810089111328,
0.46750000000000003,0.0055533647537231445,
0.46999999999999997,0.0060101351700723171,
0.47249999999999998,0.0053129596635699272,
0.47499999999999998,0.0029569864273071289,
0.47749999999999998,0.0029089055024087429,
0.47999999999999998,0.004567702766507864,
0.48249999999999998,0.0083901491016149521,
0.48499999999999999,0.022574067115783691,
0.48749999999999999,0.03214220330119133,
0.48999999999999999,0.042479634284973145,
0.49249999999999999,0.052696865051984787,
0.495,0.070078179240226746,
0.4975,0.076352760195732117,
0.5,0.08092045783996582,
0.50249999999999995,0.084021687507629395,
0.505,0.087723933160305023,
0.50749999999999995,0.089430809020996094,
0.51000000000000001,0.091666579246520996,
0.51249999999999996,0.094791851937770844,
0.51500000000000001,0.10402341932058334,
0.51749999999999996,0.10996143519878387,
0.52000000000000002,0.11642833799123764,
0.52249999999999996,0.12315969169139862,
0.52500000000000002,0.13638198375701904,
0.52749999999999997,0.14253637194633484,
0.53000000000000003,0.148354172706604,
0.53249999999999997,0.15388350188732147,
0.53500000000000003,0.1645815372467041,
0.53749999999999998,0.17003874480724335,
0.54000000000000004,0.17568826675415039,
0.54249999999999998,0.18162629008293152,
0.54500000000000004,0.19405524432659149,
0.54749999999999999,0.20032982528209686,
0.55000000000000004,0.20643612742424011,
0.55249999999999999,0.21215777099132538,
0.55500000000000005,0.2215576171875,
0.5575,0.22489926218986511,
0.56000000000000005,0.22713503241539001,
0.5625,0.22821685671806335,
0.56499999999999995,0.22689461708068848,
0.5675,0.22470693290233612,
0.56999999999999995,0.22174994647502899,
0.57250000000000001,0.21814386546611786,
0.57499999999999996,0.20951330661773682,
0.57750000000000001,0.20451287925243378,
0.57999999999999996,0.19891142845153809,
0.58250000000000002,0.19251665472984314,
0.58499999999999996,0.1762412041425705,
0.58750000000000002,0.1659758985042572,
0.58999999999999997,0.15417198836803436,
0.59250000000000003,0.14092564582824707,
0.59499999999999997,0.11123558133840561,
0.59750000000000003,0.095585189759731293,
0.59999999999999998,0.07995884120464325,
0.60250000000000004,0.064765214920043945,
0.60499999999999998,0.036541622132062912,
0.60750000000000004,0.023728013038635254,
0.60999999999999999,0.011755824089050293,
0.61250000000000004,0.00062505406094714999,
0.61499999999999999,-0.019256472587585449,
0.61750000000000005,-0.027911067008972168,
0.62,-0.03550788015127182,
0.62250000000000005,-0.041902661323547363,
0.625,-0.05060533806681633,
0.62749999999999995,-0.052961312234401703,
0.63,-0.054235458374023438,
0.63249999999999995,-0.054836474359035492,
0.63500000000000001,-0.055990420281887054,
0.63749999999999996,-0.057649217545986176,
0.64000000000000001,-0.060630243271589279,
0.64249999999999996,-0.065101787447929382,
0.64500000000000002,-0.078372165560722351,
0.64749999999999996,-0.086425743997097015,
0.65000000000000002,-0.094575487077236176,
0.65249999999999997,-0.1021001785993576,
0.65500000000000003,-0.11260589212179184,
0.65749999999999997,-0.11462529748678207,
0.66000000000000003,-0.11421661078929901,
0.66249999999999998,-0.11150002479553223,
0.66500000000000004,-0.10092218965291977,
0.66749999999999998,-0.094214878976345062,
0.67000000000000004,-0.087435446679592133,
0.67249999999999999,-0.081184908747673035,
0.67500000000000004,-0.071953341364860535,
0.67749999999999999,-0.069380998611450195,
0.68000000000000005,-0.068178974092006683,
0.6825,-0.06815493106842041,
0.68500000000000005,-0.070631109178066254,
0.6875,-0.07243414968252182,
0.68999999999999995,-0.074213147163391113,
0.6925,-0.075751744210720062,
0.69499999999999995,-0.077602863311767578,
0.69750000000000001,-0.077915392816066742,
0.69999999999999996,-0.077915392816066742,
0.70250000000000001,-0.077771149575710297,
0.70499999999999996,-0.077482663094997406,
0.70750000000000002,-0.077554784715175629,
0.70999999999999996,-0.077723070979118347,
0.71250000000000002,-0.077963471412658691,
0.71499999999999997,-0.078492365777492523,
0.71750000000000003,-0.078708730638027191,
0.71999999999999997,-0.079021260142326355,
0.72250000000000003,-0.07955014705657959,
0.72499999999999998,-0.081978246569633484,
0.72750000000000004,-0.084093809127807617,
0.72999999999999998,-0.086810395121574402,
0.73250000000000004,-0.089911624789237976,
0.73499999999999999,-0.095753476023674011,
0.73750000000000004,-0.097556516528129578,
0.73999999999999999,-0.097989246249198914,
0.74250000000000005,-0.096739135682582855,
0.745,-0.088901922106742859,
0.74750000000000005,-0.082771584391593933,
0.75,-0.075775787234306335,
0.75249999999999995,-0.06856362521648407,
0.755,-0.056038498878479004,
0.75749999999999995,-0.051711201667785645,
0.76000000000000001,-0.049066744744777679,
0.76249999999999996,-0.04815320298075676,
0.76500000000000001,-0.050653420388698578,
0.76749999999999996,-0.053345959633588791,
0.77000000000000002,-0.056375067681074142,
0.77249999999999996,-0.059356093406677246,
0.77500000000000002,-0.063899755477905273,
0.77749999999999997,-0.065077744424343109,
0.78000000000000003,-0.065534517168998718,
0.78249999999999997,-0.06531815230846405,
0.78500000000000003,-0.063707433640956879,
0.78749999999999998,-0.062649652361869812,
0.79000000000000004,-0.061663985252380371,
0.79249999999999998,-0.060846608132123947,
0.79500000000000004,-0.05983690544962883,
0.79749999999999999,-0.059620540589094162,
0.80000000000000004,-0.059476297348737717,
0.80249999999999999,-0.059308014810085297,
0.80500000000000005,-0.058682959526777267,
0.8075,-0.058081947267055511,
0.81000000000000005,-0.057288609445095062,
0.8125,-0.056326985359191895,
0.81499999999999995,-0.054283540695905685,
0.8175,-0.053466163575649261,
0.81999999999999995,-0.052985351532697678,
0.82250000000000001,-0.052961312234401703,
0.82499999999999996,-0.054523944854736328,
0.82750000000000001,-0.055990420281887054,
0.82999999999999996,-0.057745378464460373,
0.83250000000000002,-0.059548418968915939,
0.83499999999999996,-0.062240958213806152,
0.83750000000000002,-0.062673687934875488,
0.83999999999999997,-0.062313079833984375,
0.84250000000000003,-0.061183176934719086,
0.84499999999999997,-0.057144366204738617,
0.84750000000000003,-0.054716270416975021,
0.84999999999999998,-0.052336256951093674,
0.85250000000000004,-0.050268769264221191,
0.85499999999999998,-0.047672390937805176,
0.85750000000000004,-0.04719158262014389,
0.85999999999999999,-0.047095417976379395,
0.86250000000000004,-0.047143500298261642,
0.86499999999999999,-0.046686731278896332,
0.86750000000000005,-0.045701067894697189,
0.87,-0.043970149010419846,
0.87250000000000005,-0.041566096246242523,
0.875,-0.035435758531093597,
0.87749999999999995,-0.032478772103786469,
0.88,-0.030267041176557541,
0.88249999999999995,-0.029281377792358398,
0.88500000000000001,-0.032358568161725998,
0.88749999999999996,-0.036565661430358887,
0.89000000000000001,-0.042167108505964279,
0.89249999999999996,-0.04860997200012207,
0.89500000000000002,-0.060798525810241699,
0.89749999999999996,-0.064933501183986664,
0.90000000000000002,-0.066880784928798676,
0.90249999999999997,-0.066303811967372894,
0.90500000000000003,-0.057985782623291016,
0.90749999999999997,-0.051206350326538086,
0.91000000000000003,-0.043681662529706955,
0.91249999999999998,-0.036277174949645996,
0.91500000000000004,-0.024641554802656174,
0.91749999999999998,-0.021347999572753906,
0.92000000000000004,-0.019929608330130577,
0.92249999999999999,-0.020145973190665245,
0.92500000000000004,-0.023920338600873947,
0.92749999999999999,-0.02644459530711174,
0.93000000000000005,-0.028728445991873741,
0.9325,-0.030435323715209961,
0.93500000000000005,-0.031348865479230881,
0.9375,-0.030627649277448654,
0.93999999999999995,-0.029329460114240646,
0.9425,-0.0276947021484375,
0.94499999999999995,-0.024521350860595703,
0.94750000000000001,-0.023343365639448166,
0.94999999999999996,-0.022574067115783691,
0.95250000000000001,-0.022213459014892578,
0.95499999999999996,-0.022093256935477257,
0.95750000000000002,-0.021876892074942589,
0.95999999999999996,-0.021155675873160362,
0.96250000000000002,-0.019593041390180588,
0.96499999999999997,-0.012909770011901855,
0.96750000000000003,-0.0075006484985351562,
0.96999999999999997,-0.00072121620178222656,
0.97250000000000003,0.0071881217882037163,
0.97499999999999998,0.02461751364171505,
0.97750000000000004,0.032839380204677582,
0.97999999999999998,0.039763055741786957,
0.98250000000000004,0.044691365212202072,
0.98499999999999999,0.046494405716657639,
0.98750000000000004,0.042984485626220703,
0.98999999999999999,0.03675798699259758,
0.99250000000000005,0.028295716270804405,
0.995,0.0075487298890948296,
0.99750000000000005,-0.0031012296676635742,
1,-0.012957851402461529,89.552238464355469
1.0024999999999999,-0.021468203514814377,
1.0049999999999999,-0.03322402760386467,
1.0075000000000001,-0.036421418190002441,
1.01,-0.038032136857509613,
1.0125,-0.038368701934814453,
1.0149999999999999,-0.036637783050537109,
1.0175000000000001,-0.035243432968854904,
1.02,-0.033849082887172699,
1.0225,-0.032695136964321136,
1.0249999999999999,-0.031565230339765549,
1.0275000000000001,-0.031709473580121994,
1.03,-0.032286446541547775,
1.0325,-0.03334423154592514,
1.0349999999999999,-0.037094555795192719,
1.0375000000000001,-0.040147703140974045,
1.04,-0.044523082673549652,
1.0425,-0.050725542008876801,
1.0449999999999999,-0.071087881922721863,
1.0475000000000001,-0.086257457733154297,
1.05,-0.10503312200307846,
1.0525,-0.12715041637420654,
1.0549999999999999,-0.17761151492595673,
1.0575000000000001,-0.20266175270080566,
1.0600000000000001,-0.22441844642162323,
1.0625,-0.240020751953125,
1.0649999999999999,-0.24004480242729187,
1.0674999999999999,-0.21821598708629608,
1.0700000000000001,-0.17821252346038818,
1.0725,-0.11815925687551498,
1.075,0.06428440660238266,
1.0774999999999999,0.18429479002952576,
1.0800000000000001,0.31923434138298035,
1.0825,0.46379011869430542,
1.085,0.75323820114135742,
1.0874999999999999,0.88144642114639282,
1.0900000000000001,0.98720073699951172,
1.0925,1.0627361536026001,
1.095,1.1012250185012817,
1.0974999999999999,1.0597550868988037,
1.1000000000000001,0.97989243268966675,
1.1025,0.86702209711074829,
1.105,0.57574689388275146,
1.1074999999999999,0.4176563024520874,
1.1100000000000001,0.26511907577514648,
1.1125,0.12712638080120087,
1.115,-0.079982876777648926,
1.1174999999999999,-0.14340183138847351,
1.1200000000000001,-0.18078486621379852,
1.1225000000000001,-0.19561788439750671,
1.125,-0.17806828022003174,
1.1274999999999999,-0.15700876712799072,
1.1299999999999999,-0.13443470001220703,
1.1325000000000001,-0.11409640312194824,
1.135,-0.087675854563713074,
1.1375,-0.082122489809989929,
1.1399999999999999,-0.080415606498718262,
1.1425000000000001,-0.080848336219787598,
1.145,-0.081593595445156097,
1.1475,-0.079357825219631195,
1.1499999999999999,-0.074501633644104004,
1.1525000000000001,-0.067097149789333344,
1.155,-0.046855013817548752,
1.1575,-0.035796366631984711,
1.1599999999999999,-0.025434892624616623,
1.1625000000000001,-0.016587972640991211,
1.165,-0.0056014461442828178,
1.1675,-0.0037743649445474148,
1.1699999999999999,-0.0041109323501586914,
1.1725000000000001,-0.0061062974855303764,
1.175,-0.012501081451773643,
1.1775,-0.015602311119437218,
1.1799999999999999,-0.017910202965140343,
1.1825000000000001,-0.019112229347229004,
1.1850000000000001,-0.017717879265546799,
1.1875,-0.015265743248164654,
1.1899999999999999,-0.011900067329406738,
1.1924999999999999,-0.0078372163698077202,
1.1950000000000001,0.0015626351814717054,
1.1975,0.0065390272065997124,
1.2,0.011563500389456749,
1.2024999999999999,0.01646777056157589,
1.2050000000000001,0.0253627710044384,
1.2075,0.029016932472586632,
1.21,0.031925838440656662,
1.2124999999999999,0.033993326127529144,
1.2150000000000001,0.03567616268992424,
1.2175,0.035652123391628265,
1.22,0.035483837127685547,
1.2224999999999999,0.035628080368041992,
1.2250000000000001,0.038561027497053146,
1.2275,0.042046904563903809,
1.23,0.047095417976379395,
1.2324999999999999,0.053586363792419434,
1.2350000000000001,0.069573327898979187,
1.2375,0.078059636056423187,
1.24,0.086161300539970398,
1.2424999999999999,0.09339749813079834,
1.2450000000000001,0.10435998439788818,
1.2475000000000001,0.10820647329092026,
1.25,0.11135578155517578,
1.2524999999999999,0.11426468938589096,
1.2549999999999999,0.12099604308605194,
1.2575000000000001,0.12539546191692352,
1.26,0.13051609694957733,
1.2625,0.1361415833234787,
1.2649999999999999,0.14732043445110321,
1.2675000000000001,0.1521766185760498,
1.27,0.15621542930603027,
1.2725,0.15950898826122284,
1.2749999999999999,0.16511043906211853,
1.2775000000000001,0.16837994754314423,
1.28,0.17258703708648682,
1.2825,0.17806828022003174,
1.2849999999999999,0.19287726283073425,
1.2875000000000001,0.20157992839813232,
1.29,0.21033069491386414,
1.2925,0.21843235194683075,
1.2949999999999999,0.23021221160888672,
1.2975000000000001,0.23319324851036072,
1.3,0.23413082957267761,
1.3025,0.23336152732372284,
1.3049999999999999,0.22852937877178192,
1.3075000000000001,0.22559642791748047,
1.3100000000000001,0.22290389239788055,
1.3125,0.22066812217235565,
1.3149999999999999,0.21718224883079529,
1.3174999999999999,0.21521091461181641,
1.3200000000000001,0.21237413585186005,
1.3225,0.20804683864116669,
1.325,0.19297342002391815,
1.3274999999999999,0.18174648284912109,
1.3300000000000001,0.16811549663543701,
1.3325,0.15244106948375702,
1.335,0.11734187602996826,
1.3374999999999999,0.099335514008998871,
1.3400000000000001,0.081978246569633484,
1.3425,0.065798960626125336,
1.345,0.038320623338222504,
1.3474999999999999,0.027093689888715744,
1.3500000000000001,0.017261108383536339,
1.3525,0.0084141893312335014,
1.355,-0.0081257028505206108,
1.3574999999999999,-0.016587972640991211,
1.3600000000000001,-0.025482973083853722,
1.3625,-0.03476262092590332,
1.365,-0.053369998931884766,
1.3674999999999999,-0.061688028275966644,
1.3700000000000001,-0.068587660789489746,
1.3725000000000001,-0.07351597398519516,
1.375,-0.076184473931789398,
1.3774999999999999,-0.073924660682678223,
1.3799999999999999,-0.069693528115749359,
1.3825000000000001,-0.064140163362026215,
1.385,-0.05214393138885498,
1.3875,-0.047263704240322113,
1.3899999999999999,-0.043946109712123871,
1.3925000000000001,-0.042551755905151367,
1.395,-0.045652985572814941,
1.3975,-0.049739878624677658,
1.3999999999999999,-0.054932635277509689,
1.4025000000000001,-0.06075044721364975,
1.405,-0.072337985038757324,
1.4075,-0.077290341258049011,
1.4099999999999999,-0.081305108964443207,
1.4125000000000001,-0.084189973771572113,
1.415,-0.086545944213867188,
1.4175,-0.086185336112976074,
1.4199999999999999,-0.085079476237297058,
1.4225000000000001,-0.083540879189968109,
1.425,-0.080367527902126312,
1.4275,-0.079309746623039246,
1.4299999999999999,-0.078780852258205414,
1.4325000000000001,-0.078828930854797363,
1.4350000000000001,-0.080103084444999695,
1.4375,-0.080848336219787598,
1.4399999999999999,-0.08132915198802948,
1.4424999999999999,-0.08132915198802948,
1.4450000000000001,-0.079670354723930359,
1.4475,-0.078107714653015137,
1.45,-0.076256595551967621,
1.4524999999999999,-0.074309311807155609,
1.4550000000000001,-0.07072727382183075,
1.4575,-0.069188676774501801,
1.46,-0.067746244370937347,
1.4624999999999999,-0.066303811967372894,
1.4650000000000001,-0.062962174415588379,
1.4675,-0.061014890670776367,
1.47,-0.058995485305786133,
1.4724999999999999,-0.057144366204738617,
1.4750000000000001,-0.055173039436340332,
1.4775,-0.055605769157409668,
1.48,-0.057192444801330566,
1.4824999999999999,-0.059981148689985275,
1.4850000000000001,-0.068058773875236511,
1.4875,-0.072506271302700043,
1.49,-0.076521039009094238,
1.4924999999999999,-0.07955014705657959,
1.4950000000000001,-0.081232987344264984,
1.4975000000000001,-0.079598233103752136,
1.5,-0.076497003436088562,
1.5024999999999999,-0.072265863418579102,
1.5049999999999999,-0.062313079833984375,
1.5075000000000001,-0.057529013603925705,
1.51,-0.053369998931884766,
1.5125,-0.050004325807094574,
1.5149999999999999,-0.045869350433349609,
1.5175000000000001,-0.044931769371032715,
1.52,-0.044571161270141602,
1.5225,-0.044595204293727875,
1.5249999999999999,-0.045220255851745605,
1.5275000000000001,-0.045604906976222992,
1.53,-0.045893393456935883,
1.5325,-0.045941472053527832,
1.5349999999999999,-0.045027934014797211,
1.5375000000000001,-0.043946109712123871,
1.54,-0.042503677308559418,
1.5425,-0.040868919342756271,
1.5449999999999999,-0.038056176155805588,
1.5475000000000001,-0.037527285516262054,
1.55,-0.037935972213745117,
1.5525,-0.039450526237487793,
1.5549999999999999,-0.045580863952636719,
1.5575000000000001,-0.049595635384321213,
1.5600000000000001,-0.053658485412597656,
1.5625,-0.057192444801330566,
1.5649999999999999,-0.060702364891767502,
1.5674999999999999,-0.059981148689985275,
1.5700000000000001,-0.05750497430562973,
1.5725,-0.053442120552062988,
1.575,-0.042215190827846527,
1.5774999999999999,-0.036229096353054047,
1.5800000000000001,-0.030819972977042198,
1.5825,-0.026492675766348839,
1.585,-0.022598108276724815,
1.5874999999999999,-0.023175081238150597,
1.5900000000000001,-0.025194486603140831,
1.5925,-0.028271675109863281,
1.595,-0.035531919449567795,
1.5974999999999999,-0.038705270737409592,
1.6000000000000001,-0.041013162583112717,
1.6025,-0.042191147804260254,
1.605,-0.04120548814535141,
1.6074999999999999,-0.039354365319013596,
1.6100000000000001,-0.037022434175014496,
1.6125,-0.034546256065368652,
1.615,-0.030387243255972862,
1.6174999999999999,-0.029113095253705978,
1.6200000000000001,-0.028512081131339073,
1.6225000000000001,-0.028488039970397949,
1.625,-0.02985835075378418,
1.6274999999999999,-0.030964216217398643,
1.6299999999999999,-0.032094120979309082,
1.6325000000000001,-0.033199988305568695,
1.635,-0.034858785569667816,
1.6375,-0.035339593887329102,
1.6399999999999999,-0.035483837127685547,
1.6425000000000001,-0.035291515290737152,
1.645,-0.033608675003051758,
1.6475,-0.03197392076253891,
1.6499999999999999,-0.029762189835309982,
1.6525000000000001,-0.027021568268537521,
1.655,-0.020410418510437012,
1.6575,-0.017044743523001671,
1.6599999999999999,-0.014015635475516319,
1.6625000000000001,-0.01168370246887207,
1.665,-0.01028935145586729,
1.6675,-0.011419257149100304,
1.6699999999999999,-0.013655027374625206,
1.6725000000000001,-0.016708176583051682,
1.675,-0.023439526557922363,
1.6775,-0.026132067665457726,
1.6799999999999999,-0.027814906090497971,
1.6825000000000001,-0.028271675109863281,
1.6850000000000001,-0.025555094704031944,
1.6875,-0.022814473137259483,
1.6899999999999999,-0.019617080688476562,
1.6924999999999999,-0.016347568482160568,
1.6950000000000001,-0.010577837936580181,
1.6975,-0.0082459058612585068,
1.7,-0.0060341758653521538,
1.7024999999999999,-0.0036301217041909695,
1.7050000000000001,0.0032454729080200195,
1.7075,0.0083420677110552788,
1.71,0.014664730057120323,
1.7124999999999999,0.02199709415435791,
1.7150000000000001,0.037623446434736252,
1.7175,0.044402878731489182,
1.72,0.049331188201904297,
1.7224999999999999,0.05168716236948967,
1.7250000000000001,0.046830974519252777,
1.7275,0.039594769477844238,
1.73,0.029762189835309982,
1.7324999999999999,0.018174648284912109,
1.7350000000000001,-0.0063226623460650444,
1.7375,-0.017309188842773438,
1.74,-0.026588838547468185,
1.7424999999999999,-0.033873122185468674,
1.7450000000000001,-0.043008528649806976,
1.7475000000000001,-0.045677028596401215,
1.75,-0.047744512557983398,
1.7524999999999999,-0.049571596086025238,
1.7549999999999999,-0.052817068994045258,
1.7575000000000001,-0.053778689354658127,
1.76,-0.053730607032775879,
1.7625,-0.052216053009033203,
1.7649999999999999,-0.044042270630598068,
1.7675000000000001,-0.037863850593566895,
1.77,-0.031300783157348633,
1.7725,-0.025579135864973068,
1.7749999999999999,-0.022477906197309494,
1.7775000000000001,-0.027911067008972168,
1.78,-0.039402447640895844,
1.7825,-0.057312648743391037,
1.7849999999999999,-0.11044224351644516,
1.7875000000000001,-0.14277677237987518,
1.79,-0.17590463161468506,
1.7925,-0.20674864947795868,
1.7949999999999999,-0.24773776531219482,
1.7975000000000001,-0.25059860944747925,
1.8,-0.23711185157299042,
1.8025,-0.20434460043907166,
1.8049999999999999,-0.073491930961608887,
1.8075000000000001,0.025434892624616623,
1.8100000000000001,0.14477214217185974,
1.8125,0.28088968992233276,
1.8149999999999999,0.58036267757415771,
1.8174999999999999,0.72830820083618164,
1.8200000000000001,0.86319965124130249,
1.8225,0.97597384452819824,
1.825,1.1041820049285889,
1.8274999999999999,1.1092065572738647,
1.8300000000000001,1.0725927352905273,
1.8325,0.99667274951934814,
1.835,0.75112265348434448,
1.8374999999999999,0.59925854206085205,
1.8400000000000001,0.44184109568595886,
1.8425,0.28901538252830505,
1.845,0.030675729736685753,
1.8474999999999999,-0.063803598284721375,
1.8500000000000001,-0.132222980260849,
1.8525,-0.17549595236778259,
1.855,-0.1999211311340332,
1.8574999999999999,-0.19032895565032959,
1.8600000000000001,-0.17275533080101013,
1.8625,-0.15162369608879089,
1.865,-0.11109133809804916,
1.8674999999999999,-0.095296703279018402,
1.8700000000000001,-0.083180271089076996,
1.8725000000000001,-0.074429512023925781,
1.875,-0.063803598284721375,
1.8774999999999999,-0.060245595872402191,
1.8799999999999999,-0.056879919022321701,
1.8825000000000001,-0.053321920335292816,
1.885,-0.044883690774440765,
1.8875,-0.040051542222499847,
1.8899999999999999,-0.034930907189846039,
1.8925000000000001,-0.029641985893249512,
1.895,-0.019088190048933029,
1.8975,-0.013991594314575195,
1.8999999999999999,-0.0091594457626342773,
1.9025000000000001,-0.0046879053115844727,
1.905,0.0027165811043232679,
1.9075,0.0055533647537231445,
1.9099999999999999,0.0077650947496294975,
1.9125000000000001,0.0093758106231689453,
1.915,0.011347135528922081,
1.9175,0.011948148719966412,
1.9199999999999999,0.012549161911010742,
1.9225000000000001,0.013246337883174419,
1.925,0.015313824638724327,
1.9275,0.016804337501525879,
1.9299999999999999,0.018607378005981445,
1.9325000000000001,0.020722946152091026,
1.9350000000000001,0.025747418403625488,
1.9375,0.028512081131339073,
1.9399999999999999,0.031324826180934906,
1.9424999999999999,0.034041404724121094,
1.9450000000000001,0.038825474679470062,
1.9475,0.040724676102399826,
1.95,0.042311351746320724,
1.9524999999999999,0.043681662529706955,
1.9550000000000001,0.046326123178005219,
1.9575,0.048105120658874512,
1.96,0.050509177148342133,
1.9624999999999999,0.053754650056362152,
1.9650000000000001,0.057985782623291016,
1.9675,0.069597363471984863,
1.97,0.076833568513393402,
1.9724999999999999,0.084718868136405945,
1.9750000000000001,0.10118663311004639,
1.9775,0.10895173251628876,
1.98,0.11582732200622559,
1.9824999999999999,0.12145280838012695,
1.9850000000000001,0.12767931818962097,
1.9875,0.12813608348369598,
1.99,0.12703022360801697,
1.9924999999999999,0.12479444593191147,
1.9950000000000001,0.11933724582195282,
1.9975000000000001,0.11760632693767548,
2,0.11753420531749725,88.073394775390625
2.0024999999999999,0.11967381089925766,
2.0049999999999999,0.13176620006561279,
2.0074999999999998,0.14169494807720184,
2.0099999999999998,0.15371522307395935,
2.0125000000000002,0.16725003719329834,
2.0150000000000001,0.19573807716369629,
2.0175000000000001,0.20912866294384003,
2.02,0.22102873027324677,
2.0225,0.23093342781066895,
2.0249999999999999,0.24360279738903046,
2.0274999999999999,0.24634341895580292,
2.0299999999999998,0.24694442749023438,
2.0325000000000002,0.24576644599437714,
2.0350000000000001,0.23987650871276855,
2.0375000000000001,0.23607811331748962,
2.04,0.23220758140087128,
2.0425,0.22852937877178192,
2.0449999999999999,0.22223076224327087,
2.0474999999999999,0.21949014067649841,
2.0499999999999998,0.21672546863555908,
2.0525000000000002,0.21362423896789551,
2.0550000000000002,0.20472924411296844,
2.0575000000000001,0.19814214110374451,
2.0600000000000001,0.18965582549571991,
2.0625,0.17910203337669373,
2.0649999999999999,0.15176793932914734,
2.0674999999999999,0.13551652431488037,
2.0699999999999998,0.11815925687551498,
2.0724999999999998,0.10034521669149399,
2.0750000000000002,0.066063404083251953,
2.0775000000000001,0.05077362060546875,
2.0800000000000001,0.037262838333845139,
2.0825,0.025627216324210167,
2.085,0.0075968108139932156,
2.0874999999999999,0.00057697296142578125,
2.0899999999999999,-0.0056495270691812038,
2.0924999999999998,-0.011467337608337402,
2.0950000000000002,-0.022886594757437706,
2.0975000000000001,-0.028704404830932617,
2.1000000000000001,-0.034618377685546875,
2.1025,-0.040436189621686935,
2.105,-0.051494836807250977,
2.1074999999999999,-0.05647122859954834,
2.1099999999999999,-0.061014890670776367,
2.1124999999999998,-0.065077744424343109,
2.1150000000000002,-0.071568690240383148,
2.1175000000000002,-0.073900625109672546,
2.1200000000000001,-0.075559422373771667,
2.1225000000000001,-0.076448917388916016,
2.125,-0.075920030474662781,
2.1274999999999999,-0.0745977982878685,
2.1299999999999999,-0.072794757783412933,
2.1324999999999998,-0.07072727382183075,
2.1349999999999998,-0.067025028169155121,
2.1375000000000002,-0.065967246890068054,
2.1400000000000001,-0.065726839005947113,
2.1425000000000001,-0.066327854990959167,
2.145,-0.069549284875392914,
2.1475,-0.071496568620204926,
2.1499999999999999,-0.073059201240539551,
2.1524999999999999,-0.073708295822143555,
2.1549999999999998,-0.070799395442008972,
2.1575000000000002,-0.067000985145568848,
2.1600000000000001,-0.061856310814619064,
2.1625000000000001,-0.055822134017944336,
2.165,-0.043970149010419846,
2.1675,-0.039570730179548264,
2.1699999999999999,-0.037022434175014496,
2.1724999999999999,-0.036661826074123383,
2.1749999999999998,-0.042143069207668304,
2.1775000000000002,-0.047167539596557617,
2.1800000000000002,-0.052817068994045258,
2.1825000000000001,-0.058298312127590179,
2.1850000000000001,-0.066255733370780945,
2.1875,-0.068010687828063965,
2.1899999999999999,-0.068299174308776855,
2.1924999999999999,-0.067409679293632507,
2.1949999999999998,-0.064524814486503601,
2.1974999999999998,-0.063707433640956879,
2.2000000000000002,-0.063971877098083496,
2.2025000000000001,-0.065486431121826172,
2.2050000000000001,-0.071472525596618652,
2.2075,-0.07488628476858139,
2.21,-0.077530741691589355,
2.2124999999999999,-0.078660652041435242,
2.2149999999999999,-0.074237190186977386,
2.2174999999999998,-0.068419381976127625,
2.2200000000000002,-0.06075044721364975,
2.2225000000000001,-0.052047770470380783,
2.2250000000000001,-0.035964649170637131,
2.2275,-0.030771892517805099,
2.23,-0.02860824391245842,
2.2324999999999999,-0.029786229133605957,
2.2349999999999999,-0.041085284203290939,
2.2374999999999998,-0.049595635384321213,
2.2400000000000002,-0.058514676988124847,
2.2425000000000002,-0.066544219851493835,
2.2450000000000001,-0.075992152094841003,
2.2475000000000001,-0.076208516955375671,
2.25,-0.073323652148246765,
2.2524999999999999,-0.067770287394523621,
2.2549999999999999,-0.051735244691371918,
2.2574999999999998,-0.043128728866577148,
2.2599999999999998,-0.035387676209211349,
2.2625000000000002,-0.029113095253705978,
2.2650000000000001,-0.022574067115783691,
2.2675000000000001,-0.022309621796011925,
2.27,-0.023703973740339279,
2.2725,-0.02632439136505127,
2.2749999999999999,-0.03334423154592514,
2.2774999999999999,-0.036974351853132248,
2.2799999999999998,-0.040388107299804688,
2.2825000000000002,-0.043489336967468262,
2.2850000000000001,-0.048994623124599457,
2.2875000000000001,-0.05151887983083725,
2.29,-0.053898893296718597,
2.2925,-0.056062541902065277,
2.2949999999999999,-0.058995485305786133,
2.2974999999999999,-0.059259932488203049,
2.2999999999999998,-0.058490633964538574,
2.3025000000000002,-0.056543350219726562,
2.3050000000000002,-0.04940330982208252,
2.3075000000000001,-0.044715404510498047,
2.3100000000000001,-0.039714973419904709,
2.3125,-0.034882824867963791,
2.3149999999999999,-0.027213891968131065,
2.3174999999999999,-0.024954080581665039,
2.3199999999999998,-0.023872256278991699,
2.3224999999999998,-0.023944377899169922,
2.3250000000000002,-0.026853283867239952,
2.3275000000000001,-0.029113095253705978,
2.3300000000000001,-0.031420987099409103,
2.3325,-0.033416353166103363,
2.335,-0.035267472267150879,
2.3374999999999999,-0.03476262092590332,
2.3399999999999999,-0.03322402760386467,
2.3424999999999998,-0.030819972977042198,
2.3450000000000002,-0.024473270401358604,
2.3475000000000001,-0.021323960274457932,
2.3500000000000001,-0.018751621246337891,
2.3525,-0.017116865143179893,
2.355,-0.017717879265546799,
2.3574999999999999,-0.020097892731428146,
2.3599999999999999,-0.023703973740339279,
2.3624999999999998,-0.028199553489685059,
2.3650000000000002,-0.038224458694458008,
2.3675000000000002,-0.042840242385864258,
2.3700000000000001,-0.046638648957014084,
2.3725000000000001,-0.049331188201904297,
2.375,-0.050941906869411469,
2.3774999999999999,-0.050004325807094574,
2.3799999999999999,-0.048201285302639008,
2.3824999999999998,-0.045797228813171387,
2.3849999999999998,-0.040219824761152267,
2.3875000000000002,-0.037310920655727386,
2.3900000000000001,-0.034353934228420258,
2.3925000000000001,-0.03122866153717041,
2.395,-0.023848216980695724,
2.3975,-0.019424756988883018,
2.3999999999999999,-0.014640688896179199,
2.4024999999999999,-0.0097604598850011826,
2.4049999999999998,-0.0015385946026071906,
2.4075000000000002,0.00069717568112537265,
2.4100000000000001,0.0011058648815378547,
2.4125000000000001,-0.00057697296142578125,
2.415,-0.0097123784944415092,
2.4175,-0.016203325241804123,
2.4199999999999999,-0.022934675216674805,
2.4224999999999999,-0.028944810852408409,
2.4249999999999998,-0.035387676209211349,
2.4275000000000002,-0.034666460007429123,
2.4300000000000002,-0.031084418296813965,
2.4325000000000001,-0.024954080581665039,
2.4350000000000001,-0.0080535812303423882,
2.4375,0.00064909458160400391,
2.4399999999999999,0.0081257028505206108,
2.4424999999999999,0.013414621353149414,
2.4449999999999998,0.015409986488521099,
2.4474999999999998,0.012068351730704308,
2.4500000000000002,0.0064669055864214897,
2.4525000000000001,-0.00055293244076892734,
2.4550000000000001,-0.01492917537689209,
2.4575,-0.020506581291556358,
2.46,-0.024232864379882812,
2.4624999999999999,-0.025939743965864182,
2.4649999999999999,-0.024088621139526367,
2.4674999999999998,-0.021444162353873253,
2.4700000000000002,-0.018342932686209679,
2.4725000000000001,-0.015193621627986431,
2.4750000000000001,-0.0092075271531939507,
2.4775,-0.0060822567902505398,
2.48,-0.0023559730034321547,
2.4824999999999999,0.0023559730034321547,
2.4849999999999999,0.015602311119437218,
2.4874999999999998,0.024040540680289268,
2.4900000000000002,0.033151905983686447,
2.4925000000000002,0.042239230126142502,
2.4950000000000001,0.056952040642499924,
2.4975000000000001,0.060990851372480392,
2.5,0.062024593353271484,
2.5024999999999999,0.059860944747924805,
2.5049999999999999,0.054596066474914551,
2.5074999999999998,0.036806069314479828,
2.5099999999999998,0.025867622345685959,
2.5125000000000002,0.014736851677298546,
2.5150000000000001,-0.004784067627042532,
2.5175000000000001,-0.01214047335088253,
2.52,-0.017597675323486328,
2.5225,-0.021323960274457932,
2.5249999999999999,-0.025002162903547287,
2.5274999999999999,-0.025867622345685959,
2.5299999999999998,-0.026588838547468185,
2.5325000000000002,-0.027334094047546387,
2.5350000000000001,-0.028680365532636642,
2.5375000000000001,-0.028824608772993088,
2.54,-0.028223594650626183,
2.5425,-0.026684999465942383,
2.5449999999999999,-0.021347999572753906,
2.5474999999999999,-0.018559297546744347,
2.5499999999999998,-0.016876459121704102,
2.5525000000000002,-0.017405351623892784,
2.5550000000000002,-0.029641985893249512,
2.5575000000000001,-0.043152771890163422,
2.5600000000000001,-0.062072675675153732,
2.5625,-0.086137257516384125,
2.5649999999999999,-0.14515678584575653,
2.5674999999999999,-0.17640948295593262,
2.5699999999999998,-0.20545046031475067,
2.5724999999999998,-0.22929868102073669,
2.5750000000000002,-0.24889171123504639,
2.5775000000000001,-0.23853024840354919,
2.5800000000000001,-0.21114806830883026,
2.5825,-0.16474983096122742,
2.585,-0.010722081176936626,
2.5874999999999999,0.096210241317749023,
2.5899999999999999,0.22045175731182098,
2.5924999999999998,0.35820406675338745,
2.5950000000000002,0.65137845277786255,
2.5975000000000001,0.79230409860610962,
2.6000000000000001,0.91849291324615479,
2.6025,1.0216989517211914,
2.605,1.1313478946685791,
2.6074999999999999,1.1286312341690063,
2.6099999999999999,1.0857670307159424,
2.6124999999999998,1.0051350593566895,
2.6150000000000002,0.7538151741027832,
2.6175000000000002,0.60009998083114624,
2.6200000000000001,0.44083139300346375,
2.6225000000000001,0.28584203124046326,
2.625,0.021540325134992599,
2.6274999999999999,-0.076497003436088562,
2.6299999999999999,-0.14840225875377655,
2.6324999999999998,-0.19456009566783905,
2.6349999999999998,-0.22076427936553955,
2.6375000000000002,-0.2092488706111908,
2.6400000000000001,-0.18766045570373535,
2.6425000000000001,-0.16044656932353973,
2.645,-0.10327816009521484,
2.6475,-0.078059636056423187,
2.6499999999999999,-0.056711636483669281,
2.6524999999999999,-0.039522647857666016,
2.6549999999999998,-0.016804337501525879,
2.6575000000000002,-0.010169148445129395,
2.6600000000000001,-0.0059620542451739311,
2.6625000000000001,-0.0036301217041909695,
2.665,-0.0029329459648579359,
2.6675,-0.0038464865647256374,
2.6699999999999999,-0.0050965948030352592,
2.6724999999999999,-0.0063226623460650444,
2.6749999999999998,-0.0074044866487383842,
2.6775000000000002,-0.0067313513718545437,
2.6800000000000002,-0.0050965948030352592,
2.6825000000000001,-0.0025723378639668226,
2.6850000000000001,0.0039666891098022461,
2.6875,0.0072121620178222656,
2.6899999999999999,0.0098806619644165039,
2.6924999999999999,0.011587540619075298,
2.6949999999999998,0.011611580848693848,
2.6974999999999998,0.010097026824951172,
2.7000000000000002,0.0079814596101641655,
2.7025000000000001,0.0057216486893594265,
2.7050000000000001,0.0028367838822305202,
2.7075,0.0030531487427651882,
2.71,0.004735986702144146,
2.7124999999999999,0.0079574193805456161,
2.7149999999999999,0.018222730606794357,
2.7174999999999998,0.024665594100952148,
2.7200000000000002,0.031372904777526855,
2.7225000000000001,0.03796001523733139,
2.7250000000000001,0.049307148903608322,
2.7275,0.053658485412597656,
2.73,0.057024162262678146,
2.7324999999999999,0.059524379670619965,
2.7349999999999999,0.062769852578639984,
2.7374999999999998,0.064019963145256042,
2.7400000000000002,0.065414309501647949,
2.7425000000000002,0.067193314433097839,
2.7450000000000001,0.072674557566642761,
2.7475000000000001,0.076545082032680511,
2.75,0.081208944320678711,
2.7524999999999999,0.086521908640861511,
2.7549999999999999,0.092363759875297546,
2.7574999999999998,0.10464847087860107,
2.7599999999999998,0.11053840816020966,
2.7625000000000002,0.11592348664999008,
2.7650000000000001,0.12070755660533905,
2.7675000000000001,0.12828032672405243,
2.77,0.13145367801189423,
2.7725,0.1346510648727417,
2.7749999999999999,0.14280080795288086,
2.7774999999999999,0.14847438037395477,
2.7799999999999998,0.15547017753124237,
2.7825000000000002,0.1637401282787323,
2.7850000000000001,0.1730678528547287,
2.7875000000000001,0.19287726283073425,
2.79,0.20220498740673065,
2.7925,0.21037876605987549,
2.7949999999999999,0.22167782485485077,
2.7974999999999999,0.22451460361480713,
2.7999999999999998,0.22569260001182556,
2.8025000000000002,0.22559642791748047,
2.8050000000000002,0.22384147346019745,
2.8075000000000001,0.22340874373912811,
2.8100000000000001,0.22398571670055389,
2.8125,0.22595703601837158,
2.8149999999999999,0.23453950881958008,
2.8174999999999999,0.24071793258190155,
2.8199999999999998,0.24754545092582703,
2.8224999999999998,0.2542768120765686,
2.8250000000000002,0.26011866331100464,
2.8275000000000001,0.26591241359710693,
2.8300000000000001,0.26461422443389893,
2.8325,0.26002249121665955,
2.835,0.25206506252288818,
2.8374999999999999,0.22708694636821747,
2.8399999999999999,0.21100382506847382,
2.8424999999999998,0.19335806369781494,
2.8450000000000002,0.17477473616600037,
2.8475000000000001,0.13707916438579559,
2.8500000000000001,0.11888047307729721,
2.8525,0.1015472412109375,
2.855,0.085295841097831726,
2.8574999999999999,0.05659143254160881,
2.8599999999999999,0.044186513870954514,
2.8624999999999998,0.033103823661804199,
2.8650000000000002,0.023223161697387695,
2.8675000000000002,0.0063947839662432671,
2.8700000000000001,-0.00096162164118140936,
2.8725000000000001,-0.0078612565994262695,
2.875,-0.014496445655822754,
2.8774999999999999,-0.027213891968131065,
2.8799999999999999,-0.033127866685390472,
2.8824999999999998,-0.038536988198757172,
2.8849999999999998,-0.043176811188459396,
2.8875000000000002,-0.049162905663251877,
2.8900000000000001,-0.050244729965925217,
2.8925000000000001,-0.050124526023864746,
2.895,-0.049162905663251877,
2.8975,-0.046566527336835861,
2.8999999999999999,-0.046181879937648773,
2.9024999999999999,-0.047143500298261642,
2.9049999999999998,-0.049763917922973633,
2.9075000000000002,-0.059957109391689301,
2.9100000000000001,-0.066616341471672058,
2.9125000000000001,-0.073275566101074219,
2.915,-0.078997217118740082,
2.9175,-0.084262095391750336,
2.9199999999999999,-0.082843706011772156,
2.9224999999999999,-0.078660652041435242,
2.9249999999999998,-0.072289906442165375,
2.9275000000000002,-0.056495271623134613,
2.9300000000000002,-0.049186944961547852,
2.9325000000000001,-0.04353741928935051,
2.9350000000000001,-0.040147703140974045,
2.9375,-0.040580432862043381,
2.9399999999999999,-0.043753784149885178,
2.9424999999999999,-0.047960877418518066,
2.9449999999999998,-0.052456460893154144,
2.9474999999999998,-0.059500336647033691,
2.9500000000000002,-0.061255298554897308,
2.9525000000000001,-0.061760149896144867,
2.9550000000000001,-0.061255298554897308,
2.9575,-0.059043567627668381,
2.96,-0.058274269104003906,
2.9624999999999999,-0.058250229805707932,
2.9649999999999999,-0.059115689247846603,
2.9674999999999998,-0.06320258229970932,
2.9700000000000002,-0.065798960626125336,
2.9725000000000001,-0.068203017115592957,
2.9750000000000001,-0.070030093193054199,
2.9775,-0.070703230798244476,
2.98,-0.069453120231628418,
2.9824999999999999,-0.067337557673454285,
2.9849999999999999,-0.064741179347038269,
2.9874999999999998,-0.059764783829450607,
2.9900000000000002,-0.058178108185529709,
2.9925000000000002,-0.057529013603925705,
2.9950000000000001,-0.057817500084638596,
2.9975000000000001,-0.060534082353115082,
3,-0.062265001237392426,86.642601013183594
3.0024999999999999,-0.063707433640956879,
3.0049999999999999,-0.064548850059509277,
3.0074999999999998,-0.063467025756835938,
3.0099999999999998,-0.061471663415431976,
3.0125000000000002,-0.058658920228481293,
3.0150000000000001,-0.055269204080104828,
3.0175000000000001,-0.047864716500043869,
3.02,-0.044450961053371429,
3.0225,-0.041518013924360275,
3.0249999999999999,-0.039234161376953125,
3.0274999999999999,-0.036830108612775803,
3.0299999999999998,-0.036685865372419357,
3.0325000000000002,-0.037118595093488693,
3.0350000000000001,-0.038080215454101562,
3.0375000000000001,-0.041181445121765137,
3.04,-0.043176811188459396,
3.0425,-0.045364499092102051,
3.0449999999999999,-0.047696433961391449,
3.0474999999999999,-0.052456460893154144,
3.0499999999999998,-0.054620109498500824,
3.0525000000000002,-0.05642315000295639,
3.0550000000000002,-0.057625174522399902,
3.0575000000000001,-0.05750497430562973,
3.0600000000000001,-0.055894255638122559,
3.0625,-0.053273838013410568,
3.0649999999999999,-0.049763917922973633,
3.0674999999999999,-0.041229527443647385,
3.0699999999999998,-0.036950312554836273,
3.0724999999999998,-0.033272109925746918,
3.0750000000000002,-0.030555527657270432,
3.0775000000000001,-0.029137134552001953,
3.0800000000000001,-0.030627649277448654,
3.0825,-0.03339231014251709,
3.085,-0.037142634391784668,
3.0874999999999999,-0.045532785356044769,
3.0899999999999999,-0.049018662422895432,
3.0924999999999998,-0.051278471946716309,
3.0950000000000002,-0.05185544490814209,
3.0975000000000001,-0.047095417976379395,
3.1000000000000001,-0.041926704347133636,
3.1025,-0.035363636910915375,
3.105,-0.028031270951032639,
3.1074999999999999,-0.013871392235159874,
3.1099999999999999,-0.0083661079406738281,
3.1124999999999998,-0.004519621841609478,
3.1150000000000002,-0.0025963783264160156,
3.1175000000000002,-0.0041349730454385281,
3.1200000000000001,-0.007043878547847271,
3.1225000000000001,-0.010794202797114849,
3.125,-0.014977256767451763,
3.1274999999999999,-0.023391446098685265,
3.1299999999999999,-0.027286013588309288,
3.1324999999999998,-0.030868053436279297,
3.1349999999999998,-0.034161608666181564,
3.1375000000000002,-0.040003459900617599,
3.1400000000000001,-0.04245559498667717,
3.1425000000000001,-0.044426918029785156,
3.145,-0.04582127183675766,
3.1475,-0.046350162476301193,
3.1499999999999999,-0.045364499092102051,
3.1524999999999999,-0.04370570182800293,
3.1549999999999998,-0.04154205322265625,
3.1575000000000002,-0.036830108612775803,
3.1600000000000001,-0.034858785569667816,
3.1625000000000001,-0.033368270844221115,
3.165,-0.032430689781904221,
3.1675,-0.031733512878417969,
3.1699999999999999,-0.031517148017883301,
3.1724999999999999,-0.031012296676635742,
3.1749999999999998,-0.030098756775259972,
3.1775000000000002,-0.026925405487418175,
3.1800000000000002,-0.025002162903547287,
3.1825000000000001,-0.023247202858328819,
3.1850000000000001,-0.021924972534179688,
3.1875,-0.021347999572753906,
3.1899999999999999,-0.021949013695120811,
3.1924999999999999,-0.022814473137259483,
3.1949999999999998,-0.023463567718863487,
3.1974999999999998,-0.022333662956953049,
3.2000000000000002,-0.0200017299503088,
3.2025000000000001,-0.016419690102338791,
3.2050000000000001,-0.011948148719966412,
3.2075,-0.002476175781339407,
3.21,0.0012741487007588148,
3.2124999999999999,0.0036541621666401625,
3.2149999999999999,0.00430325698107481,
3.2174999999999998,0.00060101354029029608,
3.2200000000000002,-0.0031252703629434109,
3.2225000000000001,-0.0073564052581787109,
3.2250000000000001,-0.011491378769278526,
3.2275,-0.017309188842773438,
3.23,-0.018270811066031456,
3.2324999999999999,-0.017765959724783897,
3.2349999999999999,-0.015914838761091232,
3.2374999999999998,-0.0093277301639318466,
3.2400000000000002,-0.0054331622086465359,
3.2425000000000002,-0.0017790000420063734,
3.2450000000000001,0.0012501081218943,
3.2475000000000001,0.0040147705003619194,
3.25,0.0035099189262837172,
3.2524999999999999,0.0018270810833200812,
3.2549999999999999,-0.00072121620178222656,
3.2574999999999998,-0.0066351890563964844,
3.2599999999999998,-0.00891904067248106,
3.2625000000000002,-0.010169148445129395,
3.2650000000000001,-0.0099768247455358505,
3.2675000000000001,-0.0048561892472207546,
3.27,-0.00019232432532589883,
3.2725,0.0053369998931884766,
3.2749999999999999,0.011275013908743858,
3.2774999999999999,0.022141337394714355,
3.2799999999999998,0.026132067665457726,
3.2825000000000002,0.028752487152814865,
3.2850000000000001,0.029882391914725304,
3.2875000000000001,0.028247635811567307,
3.29,0.026035904884338379,
3.2925,0.023367404937744141,
3.2949999999999999,0.02062678337097168,
3.2974999999999999,0.015962919220328331,
3.2999999999999998,0.014232000336050987,
3.3025000000000002,0.012789567932486534,
3.3050000000000002,0.01139521598815918,
3.3075000000000001,0.0076208515092730522,
3.3100000000000001,0.0046879053115844727,
3.3125,0.0008895000210031867,
3.3149999999999999,-0.0037503242492675781,
3.3174999999999999,-0.014352202415466309,
3.3199999999999998,-0.01937667652964592,
3.3224999999999998,-0.023463567718863487,
3.3250000000000002,-0.026059946045279503,
3.3275000000000001,-0.025338729843497276,
3.3300000000000001,-0.021973054856061935,
3.3325,-0.017068784683942795,
3.335,-0.011443297378718853,
3.3374999999999999,-0.0025963783264160156,
3.3399999999999999,-0.002067486522719264,
3.3424999999999998,-0.0058899326249957085,
3.3450000000000002,-0.015121500007808208,
3.3475000000000001,-0.051615040749311447,
3.3500000000000001,-0.078324079513549805,
3.3525,-0.10924021899700165,
3.355,-0.14241616427898407,
3.3574999999999999,-0.20554661750793457,
3.3599999999999999,-0.22956311702728271,
3.3624999999999998,-0.24434804916381836,
3.3650000000000002,-0.24680018424987793,
3.3675000000000002,-0.20369550585746765,
3.3700000000000001,-0.15383541584014893,
3.3725000000000001,-0.083396635949611664,
3.375,0.0076448917388916016,
3.3774999999999999,0.24506926536560059,
3.3799999999999999,0.3844563364982605,
3.3824999999999998,0.53031027317047119,
3.3849999999999998,0.67537093162536621,
3.3875000000000002,0.92971980571746826,
3.3900000000000001,1.0220836400985718,
3.3925000000000001,1.0813435316085815,
3.395,1.1023550033569336,
3.3975,1.0225403308868408,
3.3999999999999999,0.92582523822784424,
3.4024999999999999,0.79896330833435059,
3.4049999999999998,0.65075337886810303,
3.4075000000000002,0.33166331052780151,
3.4100000000000001,0.18150608241558075,
3.4125000000000001,0.049379270523786545,
3.415,-0.058538716286420822,
3.4175,-0.19095401465892792,
3.4199999999999999,-0.21682164072990417,
3.4224999999999999,-0.22042772173881531,
3.4249999999999998,-0.20713329315185547,
3.4275000000000002,-0.15306612849235535,
3.4300000000000002,-0.12282311916351318,
3.4325000000000001,-0.095681354403495789,
3.4350000000000001,-0.073900625109672546,
3.4375,-0.048826336860656738,
3.4399999999999999,-0.044162474572658539,
3.4424999999999999,-0.04291236400604248,
3.4449999999999998,-0.043441258370876312,
3.4474999999999998,-0.044691365212202072,
3.4500000000000002,-0.043801866471767426,
3.4525000000000001,-0.041590135544538498,
3.4550000000000001,-0.038272541016340256,
3.4575,-0.029954513534903526,
3.46,-0.025915702804923058,
3.4624999999999999,-0.022357702255249023,
3.4649999999999999,-0.019424756988883018,
3.4674999999999998,-0.014953216537833214,
3.4700000000000002,-0.012909770011901855,
3.4725000000000001,-0.010553797706961632,
3.4750000000000001,-0.0075968108139932156,
3.4775,0.00055293244076892734,
3.48,0.0056014461442828178,
3.4824999999999999,0.010914405807852745,
3.4849999999999999,0.016107162460684776,
3.4874999999999998,0.024401148781180382,
3.4900000000000002,0.026805203408002853,
3.4925000000000002,0.027790864929556847,
3.4950000000000001,0.027358135208487511,
3.4975000000000001,0.023343365639448166,
3.5,0.020530622452497482,
3.5024999999999999,0.017862122505903244,
3.5049999999999999,0.015794634819030762,
3.5074999999999998,0.01490513514727354,
3.5099999999999998,0.016515851020812988,
3.5125000000000002,0.019569000229239464,
3.5150000000000001,0.023896297439932823,
3.5175000000000001,0.035339593887329102,
3.52,0.041662257164716721,
3.5225,0.047864716500043869,
3.5249999999999999,0.053586363792419434,
3.5274999999999999,0.062601566314697266,
3.5299999999999998,0.065823003649711609,
3.5325000000000002,0.068371295928955078,
3.5350000000000001,0.07060706615447998,
3.5375000000000001,0.075847908854484558,
3.54,0.079694390296936035,
3.5425,0.084670782089233398,
3.5449999999999999,0.090825162827968597,
3.5474999999999999,0.10585050284862518,
3.5499999999999998,0.1138560026884079,
3.5525000000000002,0.12147685140371323,
3.5550000000000002,0.12823224067687988,
3.5575000000000001,0.13796865940093994,
3.5600000000000001,0.14087757468223572,
3.5625,0.14289698004722595,
3.5649999999999999,0.14450769126415253,
3.5674999999999999,0.149195596575737,
3.5699999999999998,0.15352289378643036,
3.5724999999999998,0.15972535312175751,
3.5750000000000002,0.16792318224906921,
3.5775000000000001,0.18931925296783447,
3.5800000000000001,0.20133952796459198,
3.5825,0.21314343810081482,
3.585,0.2237933874130249,
3.5874999999999999,0.23872256278991699,
3.5899999999999999,0.24208824336528778,
3.5924999999999998,0.24268925189971924,
3.5950000000000002,0.24091026186943054,
3.5975000000000001,0.2329287976026535,
3.6000000000000001,0.2283610999584198,
3.6025,0.22439441084861755,
3.605,0.22153358161449432,
3.6074999999999999,0.21939396858215332,
3.6099999999999999,0.21963438391685486,
3.6124999999999998,0.21994690597057343,
3.6150000000000002,0.21965841948986053,
3.6175000000000002,0.21460990607738495,
3.6200000000000001,0.20896038413047791,
3.6225000000000001,0.20102700591087341,
3.625,0.19095401465892792,
3.6274999999999999,0.16592781245708466,
3.6299999999999999,0.15203237533569336,
3.6324999999999998,0.13792058825492859,
3.6349999999999998,0.12397706508636475,
3.6375000000000002,0.097724795341491699,
3.6400000000000001,0.085560284554958344,
3.6425000000000001,0.073996782302856445,
3.645,0.062938138842582703,
3.6475,0.041902661323547363,
3.6499999999999999,0.031877756118774414,
3.6524999999999999,0.022213459014892578,
3.6549999999999998,0.013005932793021202,
3.6575000000000002,-0.0037743649445474148,
3.6600000000000001,-0.011250972747802734,
3.6625000000000001,-0.018150608986616135,
3.665,-0.024473270401358604,
3.6675,-0.035628080368041992,
3.6699999999999999,-0.040508311241865158,
3.6724999999999999,-0.044835608452558517,
3.6749999999999998,-0.04860997200012207,
3.6775000000000002,-0.054499905556440353,
3.6800000000000002,-0.05675971508026123,
3.6825000000000001,-0.058827202767133713,
3.6850000000000001,-0.060990851372480392,
3.6875,-0.066616341471672058,
3.6899999999999999,-0.070366665720939636,
3.6924999999999999,-0.074669919908046722,
3.6949999999999998,-0.079309746623039246,
3.6974999999999998,-0.087555646896362305,
3.7000000000000002,-0.090103946626186371,
3.7025000000000001,-0.090993449091911316,
3.7050000000000001,-0.089935660362243652,
3.7075,-0.082362890243530273,
3.71,-0.076617203652858734,
3.7124999999999999,-0.070438787341117859,
3.7149999999999999,-0.064548850059509277,
3.7174999999999998,-0.056447189301252365,
3.7200000000000002,-0.055197082459926605,
3.7225000000000001,-0.056062541902065277,
3.7250000000000001,-0.058875285089015961,
3.7275,-0.068707868456840515,
3.73,-0.074429512023925781,
3.7324999999999999,-0.079790554940700531,
3.7349999999999999,-0.08416593074798584,
3.7374999999999998,-0.088156662881374359,
3.7400000000000002,-0.087459489703178406,
3.7425000000000002,-0.08519967645406723,
3.7450000000000001,-0.081737838685512543,
3.7475000000000001,-0.07346789538860321,
3.75,-0.069765649735927582,
3.7524999999999999,-0.066952906548976898,
3.7549999999999999,-0.065197944641113281,
3.7574999999999998,-0.064500771462917328,
3.7599999999999998,-0.064933501183986664,
3.7625000000000002,-0.065342187881469727,
3.7650000000000001,-0.065246030688285828,
3.7675000000000001,-0.062553487718105316,
3.77,-0.059860944747924805,
3.7725,-0.05659143254160881,
3.7749999999999999,-0.053177677094936371,
3.7774999999999999,-0.047840677201747894,
3.7799999999999998,-0.046782892197370529,
3.7825000000000002,-0.047143500298261642,
3.7850000000000001,-0.048970580101013184,
3.7875000000000001,-0.056158702820539474,
3.79,-0.060774486511945724,
3.7925,-0.065438352525234222,
3.7949999999999999,-0.069717571139335632,
3.7974999999999999,-0.075727701187133789,
3.7999999999999998,-0.07709801197052002,
3.8025000000000002,-0.077290341258049011,
3.8050000000000002,-0.076400838792324066,
3.8075000000000001,-0.071664854884147644,
3.8100000000000001,-0.068058773875236511,
3.8125,-0.063779555261135101,
3.8149999999999999,-0.058971446007490158,
3.8174999999999999,-0.048513811081647873,
3.8199999999999998,-0.043489336967468262,
3.8224999999999998,-0.03908991813659668,
3.8250000000000002,-0.035748284310102463,
3.8275000000000001,-0.033320188522338867,
3.8300000000000001,-0.03447413444519043,
3.8325,-0.036974351853132248,
3.835,-0.040436189621686935,
3.8374999999999999,-0.047864716500043869,
3.8399999999999999,-0.050629377365112305,
3.8424999999999998,-0.05214393138885498,
3.8450000000000002,-0.052192013710737228,
3.8475000000000001,-0.048489771783351898,
3.8500000000000001,-0.045508742332458496,
3.8525,-0.04257579892873764,
3.855,-0.040243864059448242,
3.8574999999999999,-0.038897596299648285,
3.8599999999999999,-0.04012366384267807,
3.8624999999999998,-0.042383473366498947,
3.8650000000000002,-0.045172177255153656,
3.8675000000000002,-0.050076447427272797,
3.8700000000000001,-0.051086150109767914,
3.8725000000000001,-0.050653420388698578,
3.875,-0.048634015023708344,
3.8774999999999999,-0.040556393563747406,
3.8799999999999999,-0.035363636910915375,
3.8824999999999998,-0.030218958854675293,
3.8849999999999998,-0.025723379105329514,
3.8875000000000002,-0.020722946152091026,
3.8900000000000001,-0.020771026611328125,
3.8925000000000001,-0.022501945495605469,
3.895,-0.02569933794438839,
3.8975,-0.034714542329311371,
3.8999999999999999,-0.039546690881252289,
3.9024999999999999,-0.043970149010419846,
3.9049999999999998,-0.047672390937805176,
3.9075000000000002,-0.051951609551906586,
3.9100000000000001,-0.052408378571271896,
3.9125000000000001,-0.051783323287963867,
3.915,-0.050172608345746994,
3.9175,-0.044547121971845627,
3.9199999999999999,-0.040868919342756271,
3.9224999999999999,-0.036830108612775803,
3.9249999999999998,-0.032647054642438889,
3.9275000000000002,-0.024761756882071495,
3.9300000000000002,-0.021420121192932129,
3.9325000000000001,-0.018727581948041916,
3.9350000000000001,-0.016732215881347656,
3.9375,-0.015001296997070312,
3.9399999999999999,-0.015241703018546104,
3.9424999999999999,-0.016107162460684776,
3.9449999999999998,-0.017573636025190353,
3.9474999999999998,-0.021924972534179688,
3.9500000000000002,-0.02461751364171505,
3.9525000000000001,-0.027478337287902832,
3.9550000000000001,-0.030339162796735764,
3.9575,-0.035339593887329102,
3.96,-0.037142634391784668,
3.9624999999999999,-0.038368701934814453,
3.9649999999999999,-0.038993757218122482,
3.9674999999999998,-0.038849513977766037,
3.9700000000000002,-0.038440823554992676,
3.9725000000000001,-0.038104258477687836,
3.9750000000000001,-0.03800809383392334,
3.9775,-0.03875335305929184,
3.98,-0.039426486939191818,
3.9824999999999999,-0.040027499198913574,
3.9849999999999999,-0.040267907083034515,
3.9874999999999998,-0.038585066795349121,
3.9900000000000002,-0.036253135651350021,
3.9925000000000002,-0.032839380204677582,
3.9950000000000001,-0.028439959511160851,
3.9975000000000001,-0.017621716484427452,
4,-0.011876027099788189,83.499000549316406
4.0025000000000004,-0.0063467025756835938,
4.0049999999999999,-0.0013703107833862305,
4.0075000000000003,0.0061543784104287624,
4.0099999999999998,0.0085103511810302734,
4.0125000000000002,0.0099287433549761772,
4.0149999999999997,0.010457634925842285,
4.0175000000000001,0.0090873241424560547,
4.0199999999999996,0.0072121620178222656,
4.0225,0.0044955811463296413,
4.0250000000000004,0.00091354054166004062,
4.0274999999999999,-0.0084382295608520508,
4.0300000000000002,-0.013751189224421978,
4.0324999999999998,-0.018871825188398361,
4.0350000000000001,-0.023247202858328819,
4.0374999999999996,-0.027021568268537521,
4.04,-0.025410851463675499,
4.0425000000000004,-0.021155675873160362,
4.0449999999999999,-0.014376243576407433,
4.0475000000000003,0.0044234595261514187,
4.0499999999999998,0.014640688896179199,
4.0525000000000002,0.024040540680289268,
4.0549999999999997,0.031637351959943771,
4.0575000000000001,0.038801431655883789,
4.0599999999999996,0.03796001523733139,
4.0625,0.034450095146894455,
4.0650000000000004,0.028920769691467285,
4.0674999999999999,0.014760891906917095,
4.0700000000000003,0.0076448917388916016,
4.0724999999999998,0.0012260675430297852,
4.0750000000000002,-0.0042070946656167507,
4.0774999999999997,-0.012404918670654297,
4.0800000000000001,-0.015722513198852539,
4.0824999999999996,-0.018967986106872559,
4.085,-0.022477906197309494,
4.0875000000000004,-0.030579566955566406,
4.0899999999999999,-0.034834742546081543,
4.0925000000000002,-0.038729310035705566,
4.0949999999999998,-0.041758418083190918,
4.0975000000000001,-0.043200850486755371,
4.0999999999999996,-0.041037201881408691,
4.1025,-0.037022434175014496,
4.1050000000000004,-0.031517148017883301,
4.1074999999999999,-0.019232433289289474,
4.1100000000000003,-0.014544527046382427,
4.1124999999999998,-0.012428959831595421,
4.1150000000000002,-0.014039675705134869,
4.1174999999999997,-0.031925838440656662,
4.1200000000000001,-0.049186944961547852,
4.1224999999999996,-0.071833133697509766,
4.125,-0.099143192172050476,
4.1275000000000004,-0.16198515892028809,
4.1299999999999999,-0.19333402812480927,
4.1325000000000003,-0.22105276584625244,
4.1349999999999998,-0.24208824336528778,
4.1375000000000002,-0.25134384632110596,
4.1399999999999997,-0.23343364894390106,
4.1425000000000001,-0.19708435237407684,
4.1449999999999996,-0.14054100215435028,
4.1475,0.034738581627607346,
4.1500000000000004,0.15104672312736511,
4.1524999999999999,0.28230807185173035,
4.1550000000000002,0.42345008254051208,
4.1574999999999998,0.70813816785812378,
4.1600000000000001,0.83567321300506592,
4.1624999999999996,0.94224494695663452,
4.165,1.0201603174209595,
4.1675000000000004,1.0676884651184082,
4.1699999999999999,1.0321806669235229,
4.1725000000000003,0.95852041244506836,
4.1749999999999998,0.85151594877243042,
4.1775000000000002,0.56867897510528564,
4.1799999999999997,0.4123433530330658,
4.1825000000000001,0.25966188311576843,
4.1849999999999996,0.11976997554302216,
4.1875,-0.094984173774719238,
4.1900000000000004,-0.1629948616027832,
4.1924999999999999,-0.20463308691978455,
4.1950000000000003,-0.22273561358451843,
4.1974999999999998,-0.20698904991149902,
4.2000000000000002,-0.18393418192863464,
4.2024999999999997,-0.15751361846923828,
4.2050000000000001,-0.13164600729942322,
4.2074999999999996,-0.090753041207790375,
4.21,-0.077194176614284515,
4.2125000000000004,-0.06748180091381073,
4.2149999999999999,-0.060437917709350586,
4.2175000000000002,-0.048946540802717209,
4.2199999999999998,-0.042599838227033615,
4.2225000000000001,-0.035339593887329102,
4.2249999999999996,-0.027430256828665733,
4.2275,-0.01214047335088253,
4.2300000000000004,-0.0062986216507852077,
4.2324999999999999,-0.002524256706237793,
4.2350000000000003,-0.0010577838402241468,
4.2374999999999998,-0.0042792162857949734,
4.2400000000000002,-0.0078372163698077202,
4.2424999999999997,-0.011635622009634972,
4.2450000000000001,-0.014857053756713867,
4.2474999999999996,-0.017116865143179893,
4.25,-0.015530189499258995,
4.2525000000000004,-0.012284716591238976,
4.2549999999999999,-0.0077891349792480469,
4.2575000000000003,0.0025723378639668226,
4.2599999999999998,0.007091959472745657,
4.2625000000000002,0.010457634925842285,
4.2649999999999997,0.012356838211417198,
4.2675000000000001,0.011876027099788189,
4.2699999999999996,0.010241270065307617,
4.2725,0.0084622707217931747,
4.2750000000000004,0.0072121620178222656,
4.2774999999999999,0.0086786355823278427,
4.2800000000000002,0.011948148719966412,
4.2824999999999998,0.016852419823408127,
4.2850000000000001,0.022958716377615929,
4.2874999999999996,0.036108892410993576,
4.29,0.041782461106777191,
4.2925000000000004,0.046133797615766525,
4.2949999999999999,0.048946540802717209,
4.2975000000000003,0.05060533806681633,
4.2999999999999998,0.050461094826459885,
4.3025000000000002,0.05060533806681633,
4.3049999999999997,0.051663123071193695,
4.3075000000000001,0.058322351425886154,
4.3099999999999996,0.064164206385612488,
4.3125,0.07135232537984848,
4.3150000000000004,0.079357825219631195,
4.3174999999999999,0.095296703279018402,
4.3200000000000003,0.10212421417236328,
4.3224999999999998,0.10777374356985092,
4.3250000000000002,0.1121731624007225,
4.3274999999999997,0.11837562173604965,
4.3300000000000001,0.12114028632640839,
4.3324999999999996,0.12445788085460663,
4.335,0.12878517806529999,
4.3375000000000004,0.1415507048368454,
4.3399999999999999,0.14989277720451355,
4.3425000000000002,0.1591724157333374,
4.3449999999999998,0.16878864169120789,
4.3475000000000001,0.18684308230876923,
4.3499999999999996,0.19429564476013184,
4.3525,0.20032982528209686,
4.3550000000000004,0.20496964454650879,
4.3574999999999999,0.21109998226165771,
4.3600000000000003,0.21350404620170593,
4.3624999999999998,0.21607637405395508,
4.3650000000000002,0.21920165419578552,
4.3674999999999997,0.22759179770946503,
4.3700000000000001,0.23261627554893494,
4.3724999999999996,0.2376888245344162,
4.375,0.24223248660564423,
4.3775000000000004,0.24740120768547058,
4.3799999999999999,0.24708867073059082,
4.3825000000000003,0.24446825683116913,
4.3849999999999998,0.23958802223205566,
4.3875000000000002,0.22415399551391602,
4.3899999999999997,0.21458587050437927,
4.3925000000000001,0.20463308691978455,
4.3949999999999996,0.19482454657554626,
4.3975,0.17713069915771484,
4.4000000000000004,0.16946177184581757,
4.4024999999999999,0.16229769587516785,
4.4050000000000002,0.15518169105052948,
4.4074999999999998,0.13890624046325684,
4.4100000000000001,0.12878517806529999,
4.4124999999999996,0.11690914630889893,
4.415,0.10330220311880112,
4.4175000000000004,0.071953341364860535,
4.4199999999999999,0.055269204080104828,
4.4225000000000003,0.038777392357587814,
4.4249999999999998,0.02307891845703125,
4.4275000000000002,-0.0041349730454385281,
4.4299999999999997,-0.015121500007808208,
4.4325000000000001,-0.024304986000061035,
4.4349999999999996,-0.031805634498596191,
4.4375,-0.04262387752532959,
4.4400000000000004,-0.046422284096479416,
4.4424999999999999,-0.049475431442260742,
4.4450000000000003,-0.05197564885020256,
4.4474999999999998,-0.055798094719648361,
4.4500000000000002,-0.057336688041687012,
4.4524999999999997,-0.058731041848659515,
4.4550000000000001,-0.060029231011867523,
4.4574999999999996,-0.062553487718105316,
4.46,-0.063827633857727051,
4.4625000000000004,-0.065173909068107605,
4.4649999999999999,-0.066592298448085785,
4.4675000000000002,-0.06964544951915741,
4.4699999999999998,-0.071280203759670258,
4.4725000000000001,-0.072866879403591156,
4.4749999999999996,-0.074357390403747559,
4.4775,-0.076497003436088562,
4.4800000000000004,-0.076977811753749847,
4.4824999999999999,-0.076905690133571625,
4.4850000000000003,-0.076328717172145844,
4.4874999999999998,-0.073828503489494324,
4.4900000000000002,-0.072193741798400879,
4.4924999999999997,-0.070583030581474304,
4.4950000000000001,-0.06923675537109375,
4.4974999999999996,-0.06815493106842041,
4.5,-0.068707868456840515,
4.5025000000000004,-0.070006057620048523,
4.5049999999999999,-0.071929298341274261,
4.5075000000000003,-0.076617203652858734,
4.5099999999999998,-0.078684687614440918,
4.5125000000000002,-0.080054998397827148,
4.5149999999999997,-0.080463692545890808,
4.5175000000000001,-0.079718433320522308,
4.5199999999999996,-0.07493436336517334,
4.5225,-0.071448490023612976,
4.5250000000000004,-0.067746244370937347,
4.5274999999999999,-0.061736106872558594,
4.5300000000000002,-0.060149431228637695,
4.5324999999999998,-0.059644579887390137,
4.5350000000000001,-0.060125391930341721,
4.5374999999999996,-0.062553487718105316,
4.54,-0.063563190400600433,
4.5425000000000004,-0.063875719904899597,
4.5449999999999999,-0.06325066089630127,
4.5475000000000003,-0.059308014810085297,
4.5499999999999998,-0.056663554161787033,
4.5525000000000002,-0.054259501397609711,
4.5549999999999997,-0.052648782730102539,
4.5575000000000001,-0.053730607032775879,
4.5599999999999996,-0.05675971508026123,
4.5625,-0.061231255531311035,
4.5650000000000004,-0.066712498664855957,
4.5674999999999999,-0.077867314219474792,
4.5700000000000003,-0.082098446786403656,
4.5724999999999998,-0.084550581872463226,
4.5750000000000002,-0.08486311137676239,
4.5774999999999997,-0.078852973878383636,
4.5800000000000001,-0.073083244264125824,
4.5824999999999996,-0.066207647323608398,
4.585,-0.058899324387311935,
4.5875000000000004,-0.045580863952636719,
4.5899999999999999,-0.040556393563747406,
4.5925000000000002,-0.036974351853132248,
4.5949999999999998,-0.034906864166259766,
4.5975000000000001,-0.034810703247785568,
4.5999999999999996,-0.036421418190002441,
4.6025,-0.038969717919826508,
4.6050000000000004,-0.042311351746320724,
4.6074999999999999,-0.050989985466003418,
4.6100000000000003,-0.056110620498657227,
4.6124999999999998,-0.061399541795253754,
4.6150000000000002,-0.06644805520772934,
4.6174999999999997,-0.073876582086086273,
4.6200000000000001,-0.075174771249294281,
4.6224999999999996,-0.074309311807155609,
4.625,-0.071111917495727539,
4.6275000000000004,-0.058394473046064377,
4.6299999999999999,-0.049812000244855881,
4.6325000000000003,-0.040748715400695801,
4.6349999999999998,-0.031949877738952637,
4.6375000000000002,-0.017982324585318565,
4.6399999999999997,-0.013751189224421978,
4.6425000000000001,-0.011563500389456749,
4.6449999999999996,-0.011275013908743858,
4.6475,-0.015169581398367882,
4.6500000000000004,-0.018463134765625,
4.6524999999999999,-0.022117298096418381,
4.6550000000000002,-0.025795500725507736,
4.6574999999999998,-0.03231048583984375,
4.6600000000000001,-0.034930907189846039,
4.6624999999999996,-0.037022434175014496,
4.665,-0.038609109818935394,
4.6675000000000004,-0.039955377578735352,
4.6699999999999999,-0.039666891098022461,
4.6725000000000003,-0.038681231439113617,
4.6749999999999998,-0.037022434175014496,
4.6775000000000002,-0.032286446541547775,
4.6799999999999997,-0.029738148674368858,
4.6825000000000001,-0.027622580528259277,
4.6849999999999996,-0.026276310905814171,
4.6875,-0.026083987206220627,
4.6900000000000004,-0.029882391914725304,
4.6924999999999999,-0.033801000565290451,
4.6950000000000003,-0.038681231439113617,
4.6974999999999998,-0.049138866364955902,
4.7000000000000002,-0.053466163575649261,
4.7024999999999997,-0.056495271623134613,
4.7050000000000001,-0.05784153938293457,
4.7074999999999996,-0.055149000138044357,
4.71,-0.051422715187072754,
4.7125000000000004,-0.046614609658718109,
4.7149999999999999,-0.041181445121765137,
4.7175000000000002,-0.03014683723449707,
4.7199999999999998,-0.025170445442199707,
4.7225000000000001,-0.020795067772269249,
4.7249999999999996,-0.017068784683942795,
4.7275,-0.011467337608337402,
4.7300000000000004,-0.0094960136339068413,
4.7324999999999999,-0.0079814596101641655,
4.7350000000000003,-0.0069717569276690483,
4.7374999999999998,-0.006611148826777935,
4.7400000000000002,-0.0073804459534585476,
4.7424999999999997,-0.0087988376617431641,
4.7450000000000001,-0.010890364646911621,
4.7474999999999996,-0.016515851020812988,
4.75,-0.019737284630537033,
4.7525000000000004,-0.022982757538557053,
4.7549999999999999,-0.026059946045279503,
4.7575000000000003,-0.031276743859052658,
4.7599999999999998,-0.033296149224042892,
4.7625000000000002,-0.034930907189846039,
4.7649999999999997,-0.036277174949645996,
4.7675000000000001,-0.038176380097866058,
4.7699999999999996,-0.038729310035705566,
4.7725,-0.038945674896240234,
4.7750000000000004,-0.038705270737409592,
4.7774999999999999,-0.036517582833766937,
4.7800000000000002,-0.034570299088954926,
4.7824999999999998,-0.032190285623073578,
4.7850000000000001,-0.029617946594953537,
4.7874999999999996,-0.024978121742606163,
4.79,-0.023439526557922363,
4.7925000000000004,-0.022574067115783691,
4.7949999999999999,-0.022381743416190147,
4.7975000000000003,-0.023030837997794151,
4.7999999999999998,-0.023223161697387695,
4.8025000000000002,-0.022814473137259483,
4.8049999999999997,-0.021588405594229698,
4.8075000000000001,-0.016491811722517014,
4.8099999999999996,-0.012981891632080078,
4.8125,-0.0092796487733721733,
4.8150000000000004,-0.0058658919297158718,
4.8174999999999999,-0.0013222297420725226,
4.8200000000000003,-0.00055293244076892734,
4.8224999999999998,-0.00074525678064674139,
4.8250000000000002,-0.0016347568016499281,
4.8274999999999997,-0.0037743649445474148,
4.8300000000000001,-0.0042070946656167507,
4.8324999999999996,-0.0038224458694458008,
4.835,-0.0025482974015176296,
4.8375000000000004,0.0018030405044555664,
4.8399999999999999,0.0039907298050820827,
4.8425000000000002,0.0054091215133666992,
4.8449999999999998,0.0055774054490029812,
4.8475000000000001,0.00098566222004592419,
4.8499999999999996,-0.0036060810089111328,
4.8525,-0.0090873241424560547,
4.8550000000000004,-0.014712810516357422,
4.8574999999999999,-0.022670229896903038,
4.8600000000000003,-0.023367404937744141,
4.8624999999999998,-0.021179717034101486,
4.8650000000000002,-0.015962919220328331,
4.8674999999999997,0.0019953649025410414,
4.8700000000000001,0.013294419273734093,
4.8724999999999996,0.024881958961486816,
4.875,0.035772323608398438,
4.8775000000000004,0.052360296249389648,
4.8799999999999999,0.057000122964382172,
4.8825000000000003,0.058947406709194183,
4.8849999999999998,0.058322351425886154,
4.8875000000000002,0.05043705552816391,
4.8899999999999997,0.044018231332302094,
4.8925000000000001,0.03658970445394516,
4.8949999999999996,0.02860824391245842,
4.8975,0.012741486541926861,
4.9000000000000004,0.0056495270691812038,
4.9024999999999999,-0.00043272972106933594,
4.9050000000000002,-0.0053129596635699272,
4.9074999999999998,-0.011299054138362408,
4.9100000000000001,-0.012669364921748638,
4.9124999999999996,-0.013390581123530865,
4.915,-0.013895432464778423,
4.9175000000000004,-0.016251405701041222,
4.9199999999999999,-0.018871825188398361,
4.9225000000000003,-0.022718310356140137,
4.9249999999999998,-0.027646621689200401,
4.9275000000000002,-0.03892163559794426,
4.9299999999999997,-0.043898027390241623,
4.9325000000000001,-0.047504108399152756,
4.9349999999999996,-0.049186944961547852,
4.9375,-0.046398244798183441,
4.9400000000000004,-0.042936407029628754,
4.9424999999999999,-0.039570730179548264,
4.9450000000000003,-0.037815771996974945,
4.9474999999999998,-0.045725107192993164,
4.9500000000000002,-0.057937704026699066,
4.9524999999999997,-0.076448917388916016,
4.9550000000000001,-0.10077794641256332,
4.9574999999999996,-0.16047060489654541,
4.96,-0.19040107727050781,
4.9625000000000004,-0.21561960875988007,
4.9649999999999999,-0.23215949535369873,
4.9675000000000002,-0.22321641445159912,
4.9699999999999998,-0.19088189303874969,
4.9725000000000001,-0.13674259185791016,
4.9749999999999996,-0.059884987771511078,
4.9775,0.1585233211517334,
4.9800000000000004,0.29396772384643555,
4.9824999999999999,0.43998998403549194,
4.9850000000000003,0.58947408199310303,
4.9874999999999998,0.8651469349861145,
4.9900000000000002,0.97381019592285156,
4.9924999999999997,1.052398681640625,
4.9950000000000001,1.0948302745819092,
4.9974999999999996,1.0596349239349365,
5,0.9835706353187561,78.504676818847656
5.0025000000000004,0.87449872493743896,
5.0049999999999999,0.74013614654541016,
5.0075000000000003,0.43359518051147461,
5.0099999999999998,0.28139454126358032,
5.0125000000000002,0.14188727736473083,
5.0149999999999997,0.021852850914001465,
5.0175000000000001,-0.14484426379203796,
5.0199999999999996,-0.19020876288414001,
5.0225,-0.2129751443862915,
5.0250000000000004,-0.21703800559043884,
5.0274999999999999,-0.18758833408355713,
5.0300000000000002,-0.16306698322296143,
5.0324999999999998,-0.13693492114543915,
5.0350000000000001,-0.11169235408306122,
5.0374999999999996,-0.069477163255214691,
5.04,-0.053418081253767014,
5.0425000000000004,-0.040532350540161133,
5.0449999999999999,-0.030411284416913986,
5.0475000000000003,-0.016828378662467003,
5.0499999999999998,-0.012621283531188965,
5.0525000000000002,-0.0097845001146197319,
5.0549999999999997,-0.0080776214599609375,
5.0575000000000001,-0.007091959472745657,
5.0599999999999996,-0.0073804459534585476,
5.0625,-0.0079093379899859428,
5.0650000000000004,-0.0085343923419713974,
5.0674999999999999,-0.0097845001146197319,
5.0700000000000003,-0.010337432846426964,
5.0724999999999998,-0.010818243026733398,
5.0750000000000002,-0.011226932518184185,
5.0774999999999997,-0.011515418998897076,
5.0800000000000001,-0.011178851127624512,
5.0824999999999996,-0.010337432846426964,
5.085,-0.00891904067248106,
5.0875000000000004,-0.0042792162857949734,
5.0899999999999999,-0.0011539459228515625,
5.0925000000000002,0.0023559730034321547,
5.0949999999999998,0.0060582160949707031,
5.0975000000000001,0.013510784134268761,
5.0999999999999996,0.016972621902823448,
5.1025,0.020097892731428146,
5.1050000000000004,0.022790431976318359,
5.1074999999999999,0.02661287784576416,
5.1100000000000003,0.027670662850141525,
5.1124999999999998,0.028175514191389084,
5.1150000000000002,0.028223594650626183,
5.1174999999999997,0.027622580528259277,
5.1200000000000001,0.027550458908081055,
5.1224999999999996,0.028103392571210861,
5.125,0.029641985893249512,
5.1275000000000004,0.036974351853132248,
5.1299999999999999,0.043176811188459396,
5.1325000000000003,0.051062107086181641,
5.1349999999999998,0.060461960732936859,
5.1375000000000002,0.082098446786403656,
5.1399999999999997,0.093229219317436218,
5.1425000000000001,0.10366281121969223,
5.1449999999999996,0.11279821395874023,
5.1475,0.12537142634391785,
5.1500000000000004,0.1284005343914032,
5.1524999999999999,0.12943427264690399,
5.1550000000000002,0.12888133525848389,
5.1574999999999998,0.12553970515727997,
5.1600000000000001,0.12419342994689941,
5.1624999999999996,0.12395302951335907,
5.165,0.12525121867656708,
5.1675000000000004,0.13325671851634979,
5.1699999999999999,0.13972362875938416,
5.1725000000000003,0.14736852049827576,
5.1749999999999998,0.15563845634460449,
5.1775000000000002,0.17191390693187714,
5.1799999999999997,0.17898182570934296,
5.1825000000000001,0.18496792018413544,
5.1849999999999996,0.18982410430908203,
5.1875,0.1969401091337204,
5.1900000000000004,0.2000173032283783,
5.1924999999999999,0.20347914099693298,
5.1950000000000003,0.20780643820762634,
5.1974999999999998,0.22030751407146454,
5.2000000000000002,0.22852937877178192,
5.2024999999999997,0.2375926673412323,
5.2050000000000001,0.24677614867687225,
5.2074999999999996,0.26192170381546021,
5.21,0.26598453521728516,
5.2125000000000004,0.26672980189323425,
5.2149999999999999,0.26379686594009399,
5.2175000000000002,0.24749736487865448,
5.2199999999999998,0.23528477549552917,
5.2225000000000001,0.22158166766166687,
5.2249999999999996,0.20739774405956268,
5.2275,0.18085698783397675,
5.2300000000000004,0.16941368579864502,
5.2324999999999999,0.15924453735351562,
5.2350000000000003,0.1499408483505249,
5.2374999999999998,0.13140559196472168,
5.2400000000000002,0.1208517998456955,
5.2424999999999997,0.10868728160858154,
5.2450000000000001,0.094791851937770844,
5.2474999999999996,0.062409244477748871,
5.25,0.045027934014797211,
5.2525000000000004,0.027887027710676193,
5.2549999999999999,0.011779865249991417,
5.2575000000000003,-0.014472405426204205,
5.2599999999999998,-0.023800134658813477,
5.2625000000000002,-0.030483406037092209,
5.2649999999999997,-0.03476262092590332,
5.2675000000000001,-0.038176380097866058,
5.2699999999999996,-0.038585066795349121,
5.2725,-0.03892163559794426,
5.2750000000000004,-0.039739012718200684,
5.2774999999999999,-0.044018231332302094,
5.2800000000000002,-0.047672390937805176,
5.2824999999999998,-0.052240096032619476,
5.2850000000000001,-0.057432852685451508,
5.2874999999999996,-0.062986217439174652,
5.29,-0.073708295822143555,
5.2925000000000004,-0.078227922320365906,
5.2949999999999999,-0.081809960305690765,
5.2975000000000003,-0.085728570818901062,
5.2999999999999998,-0.086017057299613953,
5.3025000000000002,-0.085391998291015625,
5.3049999999999997,-0.084069773554801941,
5.3075000000000001,-0.080487728118896484,
5.3099999999999996,-0.078756809234619141,
5.3125,-0.077338419854640961,
5.3150000000000004,-0.076328717172145844,
5.3174999999999999,-0.075343057513237,
5.3200000000000003,-0.075078606605529785,
5.3224999999999998,-0.074742041528224945,
5.3250000000000002,-0.074213147163391113,
5.3274999999999997,-0.072241827845573425,
5.3300000000000001,-0.070943638682365417,
5.3324999999999996,-0.069621406495571136,
5.335,-0.068515539169311523,
5.3375000000000004,-0.067794322967529297,
5.3399999999999999,-0.068467460572719574,
5.3425000000000002,-0.069837771356105804,
5.3449999999999998,-0.071736976504325867,
5.3475000000000001,-0.073948703706264496,
5.3499999999999996,-0.077674984931945801,
5.3525,-0.078372165560722351,
5.3550000000000004,-0.077843271195888519,
5.3574999999999999,-0.072722636163234711,
5.3600000000000003,-0.068395338952541351,
5.3624999999999998,-0.063515111804008484,
5.3650000000000002,-0.05863487720489502,
5.3674999999999997,-0.05151887983083725,
5.3700000000000001,-0.050340890884399414,
5.3724999999999996,-0.051038067787885666,
5.375,-0.053514242172241211,
5.3775000000000004,-0.06200055405497551,
5.3799999999999999,-0.066688463091850281,
5.3825000000000003,-0.070751309394836426,
5.3849999999999998,-0.073588095605373383,
5.3875000000000002,-0.074621841311454773,
5.3899999999999997,-0.072890922427177429,
5.3925000000000001,-0.070102214813232422,
5.3949999999999996,-0.066760584712028503,
5.3975,-0.060269635170698166,
5.4000000000000004,-0.05784153938293457,
5.4024999999999999,-0.056206785142421722,
5.4050000000000002,-0.055293243378400803,
5.4074999999999998,-0.05522112175822258,
5.4100000000000001,-0.055629812180995941,
5.4124999999999996,-0.056110620498657227,
5.415,-0.056567393243312836,
5.4175000000000004,-0.057168405503034592,
5.4199999999999999,-0.057336688041687012,
5.4225000000000003,-0.057408809661865234,
5.4249999999999998,-0.05738477036356926,
5.4275000000000002,-0.056855879724025726,
5.4299999999999997,-0.056254863739013672,
5.4325000000000001,-0.055365364998579025,
5.4349999999999996,-0.054211419075727463,
5.4375,-0.051470797508955002,
5.4400000000000004,-0.050220690667629242,
5.4424999999999999,-0.04935523122549057,
5.4450000000000003,-0.049066744744777679,
5.4474999999999998,-0.05077362060546875,
5.4500000000000002,-0.052696865051984787,
5.4524999999999997,-0.055100917816162109,
5.4550000000000001,-0.05767325684428215,
5.4574999999999996,-0.061639945954084396,
5.46,-0.062313079833984375,
5.4625000000000004,-0.061784189194440842,
5.4649999999999999,-0.060029231011867523,
5.4675000000000002,-0.053514242172241211,
5.4699999999999998,-0.049427352845668793,
5.4725000000000001,-0.045340459793806076,
5.4749999999999996,-0.041662257164716721,
5.4775,-0.03658970445394516,
5.4800000000000004,-0.035411715507507324,
5.4824999999999999,-0.034978985786437988,
5.4850000000000003,-0.035123229026794434,
5.4874999999999998,-0.036012731492519379,
5.4900000000000002,-0.036301217973232269,
5.4924999999999997,-0.036277174949645996,
5.4950000000000001,-0.035940609872341156,
5.4974999999999996,-0.035363636910915375,
5.5,-0.034185647964477539,
5.5025000000000004,-0.033945243805646896,
5.5049999999999999,-0.034161608666181564,
5.5075000000000003,-0.035988688468933105,
5.5099999999999998,-0.037407081574201584,
5.5125000000000002,-0.038849513977766037,
5.5149999999999997,-0.040051542222499847,
5.5175000000000001,-0.040748715400695801,
5.5199999999999996,-0.040243864059448242,
5.5225,-0.039065878838300705,
5.5250000000000004,-0.037527285516262054,
5.5274999999999999,-0.034690499305725098,
5.5300000000000002,-0.033945243805646896,
5.5324999999999998,-0.033897161483764648,
5.5350000000000001,-0.034498177468776703,
5.5374999999999996,-0.03692626953125,
5.54,-0.03812829777598381,
5.5425000000000004,-0.03892163559794426,
5.5449999999999999,-0.039113961160182953,
5.5475000000000003,-0.038705270737409592,
5.5499999999999998,-0.03675798699259758,
5.5525000000000002,-0.035940609872341156,
5.5549999999999997,-0.035700201988220215,
5.5575000000000001,-0.036373339593410492,
5.5599999999999996,-0.040508311241865158,
5.5625,-0.043561458587646484,
5.5650000000000004,-0.046614609658718109,
5.5674999999999999,-0.050629377365112305,
5.5700000000000003,-0.050653420388698578,
5.5724999999999998,-0.049018662422895432,
5.5750000000000002,-0.045797228813171387,
5.5774999999999997,-0.041349731385707855,
5.5800000000000001,-0.031036337837576866,
5.5824999999999996,-0.026468634605407715,
5.585,-0.023030837997794151,
5.5875000000000004,-0.02062678337097168,
5.5899999999999999,-0.021468203514814377,
5.5925000000000002,-0.023151040077209473,
5.5949999999999998,-0.02507428452372551,
5.5975000000000001,-0.02661287784576416,
5.5999999999999996,-0.026684999465942383,
5.6025,-0.02490600012242794,
5.6050000000000004,-0.022117298096418381,
5.6074999999999999,-0.018847784027457237,
5.6100000000000003,-0.013246337883174419,
5.6124999999999998,-0.012044310569763184,
5.6150000000000002,-0.012380878441035748,
5.6174999999999997,-0.01430412195622921,
5.6200000000000001,-0.021684568375349045,
5.6224999999999996,-0.026059946045279503,
5.625,-0.030098756775259972,
5.6275000000000004,-0.033199988305568695,
5.6299999999999999,-0.035147272050380707,
5.6325000000000003,-0.033825039863586426,
5.6349999999999998,-0.031204622238874435,
5.6375000000000002,-0.023583769798278809,
5.6399999999999997,-0.019520919770002365,
5.6425000000000001,-0.015866756439208984,
5.6449999999999996,-0.012933811172842979,
5.6475,-0.010986527428030968,
5.6500000000000004,-0.010481676086783409,
5.6524999999999999,-0.011827945709228516,
5.6550000000000002,-0.014063715934753418,
5.6574999999999998,-0.016900500282645226,
5.6600000000000001,-0.02307891845703125,
5.6624999999999996,-0.02569933794438839,
5.665,-0.027478337287902832,
5.6675000000000004,-0.028055310249328613,
5.6699999999999999,-0.024665594100952148,
5.6725000000000003,-0.020434459671378136,
5.6749999999999998,-0.01461664866656065,
5.6775000000000002,-0.0075006484985351562,
5.6799999999999997,0.0088709592819213867,
5.6825000000000001,0.016948580741882324,
5.6849999999999996,0.024208825081586838,
5.6875,0.03014683723449707,
5.6900000000000004,0.036878190934658051,
5.6924999999999999,0.037647485733032227,
5.6950000000000003,0.036998391151428223,
5.6974999999999998,0.035339593887329102,
5.7000000000000002,0.030844014137983322,
5.7024999999999997,0.028752487152814865,
5.7050000000000001,0.027045607566833496,
5.7074999999999996,0.025651257485151291,
5.71,0.023102959617972374,
5.7125000000000004,0.021299919113516808,
5.7149999999999999,0.018751621246337891,
5.7175000000000002,0.015265743248164654,
5.7199999999999998,0.0052408380433917046,
5.7225000000000001,-0.0010818243026733398,
5.7249999999999996,-0.0079814596101641655,
5.7275,-0.015121500007808208,
5.7300000000000004,-0.02877652645111084,
5.7324999999999999,-0.034498177468776703,
5.7350000000000003,-0.038945674896240234,
5.7374999999999998,-0.041782461106777191,
5.7400000000000002,-0.041518013924360275,
5.7424999999999997,-0.038320623338222504,
5.7450000000000001,-0.033464431762695312,
5.7474999999999996,-0.027622580528259277,
5.75,-0.017164945602416992,
5.7525000000000004,-0.015241703018546104,
5.7549999999999999,-0.017477473244071007,
5.7575000000000003,-0.02507428452372551,
5.7599999999999998,-0.059187810868024826,
5.7625000000000002,-0.085512205958366394,
5.7649999999999997,-0.11664470285177231,
5.7675000000000001,-0.15066206455230713,
5.7699999999999996,-0.21631678938865662,
5.7725,-0.2414151132106781,
5.7750000000000004,-0.2567048966884613,
5.7774999999999999,-0.25879642367362976,
5.7800000000000002,-0.21186928451061249,
5.7824999999999998,-0.15869161486625671,
5.7850000000000001,-0.084406338632106781,
5.7874999999999996,0.010529756546020508,
5.79,0.25413256883621216,
5.7925000000000004,0.39493799209594727,
5.7949999999999999,0.54079198837280273,
5.7975000000000003,0.68436205387115479,
5.7999999999999998,0.93207579851150513,
5.8025000000000002,1.0199199914932251,
5.8049999999999997,1.0744439363479614,
5.8075000000000001,1.0909357070922852,
5.8099999999999996,1.0043176412582397,
5.8125,0.90603989362716675,
5.8150000000000004,0.77920198440551758,
5.8174999999999999,0.63272297382354736,
5.8200000000000003,0.32204708456993103,
5.8224999999999998,0.17799615859985352,
5.8250000000000002,0.052624743431806564,
5.8274999999999997,-0.048561893403530121,
5.8300000000000001,-0.17035126686096191,
5.8324999999999996,-0.19343018531799316,
5.835,-0.19641122221946716,
5.8375000000000004,-0.18455922603607178,
5.8399999999999999,-0.13825714588165283,
5.8425000000000002,-0.11315882205963135,
5.8449999999999998,-0.091137692332267761,
5.8475000000000001,-0.073900625109672546,
5.8499999999999996,-0.054884552955627441,
5.8525,-0.051735244691371918,
5.8550000000000004,-0.051230393350124359,
5.8574999999999999,-0.052119892090559006,
5.8600000000000003,-0.05401909351348877,
5.8624999999999998,-0.053730607032775879,
5.8650000000000002,-0.052167974412441254,
5.8674999999999997,-0.049283109605312347,
5.8700000000000001,-0.039642851799726486,
5.8724999999999996,-0.03305574506521225,
5.875,-0.025507014244794846,
5.8775000000000004,-0.017164945602416992,
5.8799999999999999,0.00045677027083002031,
5.8825000000000003,0.0088709592819213867,
5.8849999999999998,0.01629948616027832,
5.8875000000000002,0.022261541336774826,
5.8899999999999997,0.028319757431745529,
5.8925000000000001,0.028199553489685059,
5.8949999999999996,0.026156108826398849,
5.8975,0.022670229896903038,
5.9000000000000004,0.013582905754446983,
5.9024999999999999,0.0092075271531939507,
5.9050000000000002,0.0056254863739013672,
5.9074999999999998,0.0031973919831216335,
5.9100000000000001,0.0024280946236103773,
5.9124999999999996,0.0040628514252603054,
5.915,0.0069477162323892117,
5.9175000000000004,0.010890364646911621,
5.9199999999999999,0.021492242813110352,
5.9225000000000003,0.027814906090497971,
5.9249999999999998,0.0345943383872509,
5.9275000000000002,0.041566096246242523,
5.9299999999999997,0.054884552955627441,
5.9325000000000001,0.060654282569885254,
5.9349999999999996,0.065414309501647949,
5.9375,0.069092512130737305,
5.9400000000000004,0.073083244264125824,
5.9424999999999999,0.073756381869316101,
5.9450000000000003,0.073948703706264496,
5.9474999999999998,0.073996782302856445,
5.9500000000000002,0.075078606605529785,
5.9524999999999997,0.076617203652858734,
5.9550000000000001,0.078997217118740082,
5.9574999999999996,0.082314811646938324,
5.96,0.091498300433158875,
5.9625000000000004,0.097219944000244141,
5.9649999999999999,0.10351856797933578,
5.9675000000000002,0.11032204329967499,
5.9699999999999998,0.12496273219585419,
5.9725000000000001,0.13263165950775146,
5.9749999999999996,0.14039675891399384,
5.9775,0.14813780784606934,
5.9800000000000004,0.16328334808349609,
5.9824999999999999,0.17049551010131836,
5.9850000000000003,0.17737111449241638,
5.9874999999999998,0.18393418192863464,
5.9900000000000002,0.1960986852645874,
5.9924999999999997,0.20177225768566132,
5.9950000000000001,0.20720541477203369,
5.9974999999999996,0.21242222189903259,
6,0.22187015414237976,77.064216613769531
6.0025000000000004,0.22588491439819336,
6.0049999999999999,0.22927463054656982,
6.0075000000000003,0.23194313049316406,
6.0099999999999998,0.23504436016082764,
6.0125000000000002,0.23576557636260986,
6.0149999999999997,0.2361983060836792,
6.0175000000000001,0.23663103580474854,
6.0199999999999996,0.23836195468902588,
6.0225,0.23978035151958466,
6.0250000000000004,0.24129490554332733,
6.0274999999999999,0.24252097308635712,
6.0300000000000002,0.2416074275970459,
6.0324999999999998,0.2382417619228363,
6.0350000000000001,0.23223161697387695,
6.0374999999999996,0.22326450049877167,
6.04,0.19669970870018005,
6.0425000000000004,0.17977516353130341,
6.0449999999999999,0.16123990714550018,
6.0475000000000003,0.14176706969738007,
6.0499999999999998,0.10284543037414551,
6.0525000000000002,0.084526538848876953,
6.0549999999999997,0.067505836486816406,
6.0575000000000001,0.051999688148498535,
6.0599999999999996,0.025555094704031944,
6.0625,0.014496445655822754,
6.0650000000000004,0.0046879053115844727,
6.0674999999999999,-0.0040388107299804688,
6.0700000000000003,-0.01891990564763546,
6.0724999999999998,-0.025290649384260178,
6.0750000000000002,-0.03106037899851799,
6.0774999999999997,-0.036277174949645996,
6.0800000000000001,-0.045027934014797211,
6.0824999999999996,-0.048513811081647873,
6.085,-0.051374636590480804,
6.0875000000000004,-0.053514242172241211,
6.0899999999999999,-0.055677890777587891,
6.0925000000000002,-0.055677890777587891,
6.0949999999999998,-0.05505283921957016,
6.0975000000000001,-0.053898893296718597,
6.0999999999999996,-0.050725542008876801,
6.1025,-0.049162905663251877,
6.1050000000000004,-0.048008959740400314,
6.1074999999999999,-0.047456026077270508,
6.1100000000000003,-0.049235027283430099,
6.1124999999999998,-0.05185544490814209,
6.1150000000000002,-0.055677890777587891,
6.1174999999999997,-0.060630243271589279,
6.1200000000000001,-0.073203444480895996,
6.1224999999999996,-0.080223284661769867,
6.125,-0.087219081819057465,
6.1275000000000004,-0.093782149255275726,
6.1299999999999999,-0.10366281121969223,
6.1325000000000003,-0.1061149463057518,
6.1349999999999998,-0.10649959743022919,
6.1375000000000002,-0.10464847087860107,
6.1399999999999997,-0.094743773341178894,
6.1425000000000001,-0.087531611323356628,
6.1449999999999996,-0.079694390296936035,
6.1475,-0.072049498558044434,
6.1500000000000004,-0.06075044721364975,
6.1524999999999999,-0.058298312127590179,
6.1550000000000002,-0.058346390724182129,
6.1574999999999998,-0.06075044721364975,
6.1600000000000001,-0.070390701293945312,
6.1624999999999996,-0.07601618766784668,
6.165,-0.081040665507316589,
6.1675000000000004,-0.084742903709411621,
6.1699999999999999,-0.086666151881217957,
6.1725000000000003,-0.084887146949768066,
6.1749999999999998,-0.081761881709098816,
6.1775000000000002,-0.077819228172302246,
6.1799999999999997,-0.069957971572875977,
6.1825000000000001,-0.066928863525390625,
6.1849999999999996,-0.064813300967216492,
6.1875,-0.063563190400600433,
6.1900000000000004,-0.062745809555053711,
6.1924999999999999,-0.062505409121513367,
6.1950000000000003,-0.062096714973449707,
6.1974999999999998,-0.061399541795253754,
6.2000000000000002,-0.05983690544962883,
6.2024999999999997,-0.059620540589094162,
6.2050000000000001,-0.060341756790876389,
6.2074999999999996,-0.062337122857570648,
6.21,-0.070462822914123535,
6.2125000000000004,-0.076112352311611176,
6.2149999999999999,-0.082026325166225433,
6.2175000000000002,-0.087435446679592133,
6.2199999999999998,-0.093445584177970886,
6.2225000000000001,-0.092820525169372559,
6.2249999999999996,-0.089406773447990417,
6.2275,-0.083444714546203613,
6.2300000000000004,-0.066231690347194672,
6.2324999999999999,-0.056735675781965256,
6.2350000000000003,-0.047864716500043869,
6.2374999999999998,-0.040412150323390961,
6.2400000000000002,-0.031469069421291351,
6.2424999999999997,-0.030122797936201096,
6.2450000000000001,-0.030483406037092209,
6.2474999999999996,-0.032046042382717133,
6.25,-0.036637783050537109,
6.2525000000000004,-0.03875335305929184,
6.2549999999999999,-0.040412150323390961,
6.2575000000000003,-0.041590135544538498,
6.2599999999999998,-0.043152771890163422,
6.2625000000000002,-0.044066309928894043,
6.2649999999999997,-0.045412581413984299,
6.2675000000000001,-0.047335825860500336,
6.2699999999999996,-0.052648782730102539,
6.2725,-0.055533647537231445,
6.2750000000000004,-0.058081947267055511,
6.2774999999999999,-0.059812866151332855,
6.2800000000000002,-0.059500336647033691,
6.2824999999999998,-0.057144366204738617,
6.2850000000000001,-0.053442120552062988,
6.2874999999999996,-0.048730175942182541,
6.29,-0.038464866578578949,
6.2925000000000004,-0.034089487046003342,
6.2949999999999999,-0.03094017505645752,
6.2975000000000003,-0.029329460114240646,
6.2999999999999998,-0.031084418296813965,
6.3025000000000002,-0.034089487046003342,
6.3049999999999997,-0.038032136857509613,
6.3075000000000001,-0.042359434068202972,
6.3099999999999996,-0.050100486725568771,
6.3125,-0.05260070413351059,
6.3150000000000004,-0.053754650056362152,
6.3174999999999999,-0.053466163575649261,
6.3200000000000003,-0.049018662422895432,
6.3224999999999998,-0.045436620712280273,
6.3250000000000002,-0.04154205322265625,
6.3274999999999997,-0.037815771996974945,
6.3300000000000001,-0.032574933022260666,
6.3324999999999996,-0.031685434281826019,
6.335,-0.032046042382717133,
6.3375000000000004,-0.033584635704755783,
6.3399999999999999,-0.039162039756774902,
6.3425000000000002,-0.04262387752532959,
6.3449999999999998,-0.046109758317470551,
6.3475000000000001,-0.049427352845668793,
6.3499999999999996,-0.055100917816162109,
6.3525,-0.057336688041687012,
6.3550000000000004,-0.059163771569728851,
6.3574999999999999,-0.060461960732936859,
6.3600000000000003,-0.061159133911132812,
6.3624999999999998,-0.060317717492580414,
6.3650000000000002,-0.058538716286420822,
6.3674999999999997,-0.055918298661708832,
6.3700000000000001,-0.049042701721191406,
6.3724999999999996,-0.045532785356044769,
6.375,-0.04262387752532959,
6.3775000000000004,-0.040748715400695801,
6.3799999999999999,-0.041037201881408691,
6.3825000000000003,-0.043224893510341644,
6.3849999999999998,-0.046302080154418945,
6.3875000000000002,-0.049715839326381683,
6.3899999999999997,-0.054812431335449219,
6.3925000000000001,-0.05522112175822258,
6.3949999999999996,-0.053610406816005707,
6.3975,-0.049932204186916351,
6.4000000000000004,-0.037310920655727386,
6.4024999999999999,-0.029497742652893066,
6.4050000000000002,-0.021660527214407921,
6.4074999999999998,-0.014520486816763878,
6.4100000000000001,-0.004784067627042532,
6.4124999999999996,-0.0027646622620522976,
6.415,-0.0026925406418740749,
6.4175000000000004,-0.00430325698107481,
6.4199999999999999,-0.010842284187674522,
6.4225000000000003,-0.014857053756713867,
6.4249999999999998,-0.018823742866516113,
6.4275000000000002,-0.022477906197309494,
6.4299999999999997,-0.028175514191389084,
6.4325000000000001,-0.03014683723449707,
6.4349999999999996,-0.031565230339765549,
6.4375,-0.032430689781904221,
6.4400000000000004,-0.032574933022260666,
6.4424999999999999,-0.031829677522182465,
6.4450000000000003,-0.030483406037092209,
6.4474999999999998,-0.028560161590576172,
6.4500000000000002,-0.022958716377615929,
6.4524999999999997,-0.01937667652964592,
6.4550000000000001,-0.015337864868342876,
6.4574999999999996,-0.010962486267089844,
6.46,-0.0017068784218281507,
6.4625000000000004,0.0028608243446797132,
6.4649999999999999,0.007091959472745657,
6.4675000000000002,0.0107701625674963,
6.4699999999999998,0.01567443273961544,
6.4725000000000001,0.016612013801932335,
6.4749999999999996,0.016395648941397667,
6.4775,0.015121500007808208,
6.4800000000000004,0.0099287433549761772,
6.4824999999999999,0.0064188241958618164,
6.4850000000000003,0.0025723378639668226,
6.4874999999999998,-0.0014183919411152601,
6.4900000000000002,-0.0095200538635253906,
6.4924999999999997,-0.013558864593505859,
6.4950000000000001,-0.017645757645368576,
6.4974999999999996,-0.021852850914001465,
6.5,-0.030868053436279297,
6.5025000000000004,-0.035628080368041992,
6.5049999999999999,-0.040436189621686935,
6.5075000000000003,-0.045051973313093185,
6.5099999999999998,-0.052504539489746094,
6.5125000000000002,-0.054596066474914551,
6.5149999999999997,-0.055124960839748383,
6.5175000000000001,-0.053898893296718597,
6.5199999999999996,-0.046494405716657639,
6.5225,-0.041181445121765137,
6.5250000000000004,-0.035940609872341156,
6.5274999999999999,-0.031997960060834885,
6.5300000000000002,-0.03334423154592514,
6.5324999999999998,-0.041109323501586914,
6.5350000000000001,-0.054740309715270996,
6.5374999999999996,-0.074405476450920105,
6.54,-0.12926599383354187,
6.5425000000000004,-0.1614081859588623,
6.5449999999999999,-0.19357442855834961,
6.5475000000000003,-0.22287985682487488,
6.5499999999999998,-0.25999844074249268,
6.5525000000000002,-0.2612726092338562,
6.5549999999999997,-0.24699251353740692,
6.5575000000000001,-0.21468202769756317,
6.5599999999999996,-0.089887581765651703,
6.5625,0.0032454729080200195,
6.5650000000000004,0.11510610580444336,
6.5674999999999999,0.24259309470653534,
6.5700000000000003,0.52425205707550049,
6.5724999999999998,0.66486519575119019,
6.5750000000000002,0.79475623369216919,
6.5774999999999997,0.90560716390609741,
6.5800000000000001,1.0407631397247314,
6.5824999999999996,1.054345965385437,
6.585,1.0287909507751465,
6.5875000000000004,0.96525174379348755,
6.5899999999999999,0.74326139688491821,
6.5925000000000002,0.60012400150299072,
6.5949999999999998,0.44825991988182068,
6.5975000000000001,0.29752573370933533,
6.5999999999999996,0.034402012825012207,
6.6025,-0.065342187881469727,
6.6050000000000004,-0.13945917785167694,
6.6074999999999999,-0.18782874941825867,
6.6100000000000003,-0.21761497855186462,
6.6124999999999998,-0.20768623054027557,
6.6150000000000002,-0.18799702823162079,
6.6174999999999997,-0.16347567737102509,
6.6200000000000001,-0.11522631347179413,
6.6224999999999996,-0.096354484558105469,
6.625,-0.082362890243530273,
6.6275000000000004,-0.073059201240539551,
6.6299999999999999,-0.064981579780578613,
6.6325000000000003,-0.063803598284721375,
6.6349999999999998,-0.063034296035766602,
6.6375000000000002,-0.061808228492736816,
6.6399999999999997,-0.056351028382778168,
6.6425000000000001,-0.051951609551906586,
6.6449999999999996,-0.046686731278896332,
6.6475,-0.040868919342756271,
6.6500000000000004,-0.028944810852408409,
6.6524999999999999,-0.023367404937744141,
6.6550000000000002,-0.018318891525268555,
6.6574999999999998,-0.013871392235159874,
6.6600000000000001,-0.0069477162323892117,
6.6624999999999996,-0.00461578369140625,
6.665,-0.0030771892052143812,
6.6675000000000004,-0.0024040541611611843,
6.6699999999999999,-0.0037022433243691921,
6.6725000000000003,-0.0054812431335449219,
6.6749999999999998,-0.0077410540543496609,
6.6775000000000002,-0.010097026824951172,
6.6799999999999997,-0.013462702743709087,
6.6825000000000001,-0.013630986213684082,
6.6849999999999996,-0.012308756820857525,
6.6875,-0.0093758106231689453,
6.6900000000000004,0.0011058648815378547,
6.6924999999999999,0.0081016626209020615,
6.6950000000000003,0.015722513198852539,
6.6974999999999998,0.023415487259626389,
6.7000000000000002,0.037334959954023361,
6.7024999999999997,0.042840242385864258,
6.7050000000000001,0.047143500298261642,
6.7074999999999996,0.050220690667629242,
6.71,0.053345959633588791,
6.7125000000000004,0.053898893296718597,
6.7149999999999999,0.054235458374023438,
6.7175000000000002,0.054644148796796799,
6.7199999999999998,0.056519310921430588,
6.7225000000000001,0.058154068887233734,
6.7249999999999996,0.060149431228637695,
6.7275,0.062385201454162598,
6.7300000000000004,0.06673654168844223,
6.7324999999999999,0.068587660789489746,
6.7350000000000003,0.070174336433410645,
6.7374999999999998,0.071664854884147644,
6.7400000000000002,0.075583457946777344,
6.7424999999999997,0.078804895281791687,
6.7450000000000001,0.083372592926025391,
6.7474999999999996,0.089599095284938812,
6.75,0.10734101384878159,
6.7525000000000004,0.11859198659658432,
6.7549999999999999,0.13094882667064667,
6.7575000000000003,0.14393071830272675,
6.7599999999999998,0.16977429389953613,
6.7625000000000002,0.18160223960876465,
6.7649999999999997,0.19225220382213593,
6.7675000000000001,0.20143568515777588,
6.7699999999999996,0.21523496508598328,
6.7725,0.21989881992340088,
6.7750000000000004,0.22328853607177734,
6.7774999999999999,0.22559642791748047,
6.7800000000000002,0.22785624861717224,
6.7824999999999998,0.22824089229106903,
6.7850000000000001,0.22840917110443115,
6.7874999999999996,0.22848129272460938,
6.79,0.22905826568603516,
6.7925000000000004,0.22970736026763916,
6.7949999999999999,0.23054878413677216,
6.7975000000000003,0.23146232962608337,
6.7999999999999998,0.23211142420768738,
6.8025000000000002,0.23088535666465759,
6.8049999999999997,0.22785624861717224,
6.8075000000000001,0.22242307662963867,
6.8099999999999996,0.20280599594116211,
6.8125,0.18852591514587402,
6.8150000000000004,0.17172157764434814,
6.8174999999999999,0.15313825011253357,
6.8200000000000003,0.11462529748678207,
6.8224999999999998,0.096787214279174805,
6.8250000000000002,0.081040665507316589,
6.8274999999999997,0.06786644458770752,
6.8300000000000001,0.049138866364955902,
6.8324999999999996,0.042599838227033615,
6.835,0.036950312554836273,
6.8375000000000004,0.031348865479230881,
6.8399999999999999,0.017982324585318565,
6.8425000000000002,0.0097845001146197319,
6.8449999999999998,0.00081737840082496405,
6.8475000000000001,-0.0084141893312335014,
6.8499999999999996,-0.025050243362784386,
6.8525,-0.031396947801113129,
6.8550000000000004,-0.036084853112697601,
6.8574999999999999,-0.039162039756774902,
6.8600000000000003,-0.042311351746320724,
6.8624999999999998,-0.043609540909528732,
6.8650000000000002,-0.045556824654340744,
6.8674999999999997,-0.048634015023708344,
6.8700000000000001,-0.058899324387311935,
6.8724999999999996,-0.065750882029533386,
6.875,-0.07317940890789032,
6.8775000000000004,-0.08058389276266098,
6.8799999999999999,-0.093253254890441895,
6.8825000000000003,-0.097772881388664246,
6.8849999999999998,-0.10085006803274155,
6.8875000000000002,-0.10260502994060516,
6.8899999999999997,-0.10284543037414551,
6.8925000000000001,-0.10183572769165039,
6.8949999999999996,-0.10029713809490204,
6.8975,-0.098373889923095703,
6.9000000000000004,-0.093301340937614441,
6.9024999999999999,-0.090200111269950867,
6.9050000000000002,-0.086762309074401855,
6.9074999999999998,-0.083228349685668945,
6.9100000000000001,-0.076833568513393402,
6.9124999999999996,-0.074573755264282227,
6.915,-0.073347687721252441,
6.9175000000000004,-0.073251530528068542,
6.9199999999999999,-0.07630467414855957,
6.9225000000000003,-0.078949138522148132,
6.9249999999999998,-0.081834003329277039,
6.9275000000000002,-0.084526538848876953,
6.9299999999999997,-0.08769989013671875,
6.9325000000000001,-0.08769989013671875,
6.9349999999999996,-0.086521908640861511,
6.9375,-0.084358260035514832,
6.9400000000000004,-0.07813175767660141,
6.9424999999999999,-0.07488628476858139,
6.9450000000000003,-0.072073541581630707,
6.9474999999999998,-0.06998201459646225,
6.9500000000000002,-0.068707868456840515,
6.9524999999999997,-0.069405041635036469,
6.9550000000000001,-0.070703230798244476,
6.9574999999999996,-0.072241827845573425,
6.96,-0.074693962931632996,
6.9625000000000004,-0.075054571032524109,
6.9649999999999999,-0.074790120124816895,
6.9675000000000002,-0.074020825326442719,
6.9699999999999998,-0.072410106658935547,
6.9725000000000001,-0.07243414968252182,
6.9749999999999996,-0.073564052581787109,
6.9775,-0.07601618766784668,
6.9800000000000004,-0.084670782089233398,
6.9824999999999999,-0.090176068246364594,
6.9850000000000003,-0.095729433000087738,
6.9874999999999998,-0.10065774619579315,
6.9900000000000002,-0.1060187816619873,
6.9924999999999997,-0.10556201636791229,
6.9950000000000001,-0.10282139480113983,
6.9974999999999996,-0.097941160202026367,
7,-0.083588957786560059,76.502731323242188
7.0025000000000004,-0.075319014489650726,
7.0049999999999999,-0.067241393029689789,
7.0075000000000003,-0.059909027069807053,
7.0099999999999998,-0.049066744744777679,
7.0125000000000002,-0.045869350433349609,
7.0149999999999997,-0.04399418830871582,
7.0175000000000001,-0.043200850486755371,
7.0199999999999996,-0.043441258370876312,
7.0225,-0.043753784149885178,
7.0250000000000004,-0.043946109712123871,
7.0274999999999999,-0.043849945068359375,
7.0300000000000002,-0.042960446327924728,
7.0324999999999998,-0.042359434068202972,
7.0350000000000001,-0.041830539703369141,
7.0374999999999996,-0.04154205322265625,
7.04,-0.041998825967311859,
7.0425000000000004,-0.04291236400604248,
7.0449999999999999,-0.044378839433193207,
7.0475000000000003,-0.046398244798183441,
7.0499999999999998,-0.052240096032619476,
7.0525000000000002,-0.055870216339826584,
7.0549999999999997,-0.059740744531154633,
7.0575000000000001,-0.063491068780422211,
7.0599999999999996,-0.069092512130737305,
7.0625,-0.070150300860404968,
7.0650000000000004,-0.069597363471984863,
7.0674999999999999,-0.067313514649868011,
7.0700000000000003,-0.058033864945173264,
7.0724999999999998,-0.051735244691371918,
7.0750000000000002,-0.04507601261138916,
7.0774999999999997,-0.038681231439113617,
7.0800000000000001,-0.028992891311645508,
7.0824999999999996,-0.02661287784576416,
7.085,-0.026108026504516602,
7.0875000000000004,-0.02752641960978508,
7.0899999999999999,-0.034978985786437988,
7.0925000000000002,-0.040075581520795822,
7.0949999999999998,-0.045316420495510101,
7.0975000000000001,-0.050124526023864746,
7.0999999999999996,-0.056110620498657227,
7.1025,-0.056495271623134613,
7.1050000000000004,-0.054932635277509689,
7.1074999999999999,-0.05151887983083725,
7.1100000000000003,-0.040820837020874023,
7.1124999999999998,-0.034786663949489594,
7.1150000000000002,-0.029353499412536621,
7.1174999999999997,-0.025218527764081955,
7.1200000000000001,-0.023199122399091721,
7.1224999999999996,-0.025795500725507736,
7.125,-0.03060360811650753,
7.1275000000000004,-0.037118595093488693,
7.1299999999999999,-0.051903527230024338,
7.1325000000000003,-0.058250229805707932,
7.1349999999999998,-0.062769852578639984,
7.1375000000000002,-0.064837336540222168,
7.1399999999999997,-0.06103893369436264,
7.1425000000000001,-0.055894255638122559,
7.1449999999999996,-0.049643717706203461,
7.1475,-0.043321054428815842,
7.1500000000000004,-0.034666460007429123,
7.1524999999999999,-0.033873122185468674,
7.1550000000000002,-0.035820405930280685,
7.1574999999999998,-0.040267907083034515,
7.1600000000000001,-0.053754650056362152,
7.1624999999999996,-0.060702364891767502,
7.165,-0.066327854990959167,
7.1675000000000004,-0.069765649735927582,
7.1699999999999999,-0.068203017115592957,
7.1725000000000003,-0.063298746943473816,
7.1749999999999998,-0.056278906762599945,
7.1775000000000002,-0.047960877418518066,
7.1799999999999997,-0.031012296676635742,
7.1825000000000001,-0.023944377899169922,
7.1849999999999996,-0.018511217087507248,
7.1875,-0.014953216537833214,
7.1900000000000004,-0.013198256492614746,
7.1924999999999999,-0.014424324035644531,
7.1950000000000003,-0.016491811722517014,
7.1974999999999998,-0.018967986106872559,
7.2000000000000002,-0.023920338600873947,
7.2024999999999997,-0.025915702804923058,
7.2050000000000001,-0.027454297989606857,
7.2074999999999996,-0.028560161590576172,
7.21,-0.02952178381383419,
7.2125000000000004,-0.02952178381383419,
7.2149999999999999,-0.029209256172180176,
7.2175000000000002,-0.028656324371695518,
7.2199999999999998,-0.026997527107596397,
7.2225000000000001,-0.026035904884338379,
7.2249999999999996,-0.02507428452372551,
7.2275,-0.024208825081586838,
7.2300000000000004,-0.022934675216674805,
7.2324999999999999,-0.022525986656546593,
7.2350000000000003,-0.022141337394714355,
7.2374999999999998,-0.021612446755170822,
7.2400000000000002,-0.019424756988883018,
7.2424999999999997,-0.017405351623892784,
7.2450000000000001,-0.01461664866656065,
7.2474999999999996,-0.011034607887268066,
7.25,-0.0017549594631418586,
7.2525000000000004,0.0036541621666401625,
7.2549999999999999,0.0093277301639318466,
7.2575000000000003,0.014977256767451763,
7.2599999999999998,0.02507428452372551,
7.2625000000000002,0.028728445991873741,
7.2649999999999997,0.03094017505645752,
7.2675000000000001,0.03122866153717041,
7.2699999999999996,0.024569433182477951,
7.2725,0.017237067222595215,
7.2750000000000004,0.0073323650285601616,
7.2774999999999999,-0.0048081083223223686,
7.2800000000000002,-0.03305574506521225,
7.2824999999999998,-0.04735986515879631,
7.2850000000000001,-0.060558121651411057,
7.2874999999999996,-0.07168889045715332,
7.29,-0.085295841097831726,
7.2925000000000004,-0.08702675998210907,
7.2949999999999999,-0.085391998291015625,
7.2975000000000003,-0.080656014382839203,
7.2999999999999998,-0.063875719904899597,
7.3025000000000002,-0.053177677094936371,
7.3049999999999997,-0.042022865265607834,
7.3075000000000001,-0.031300783157348633,
7.3099999999999996,-0.015073418617248535,
7.3125,-0.011563500389456749,
7.3150000000000004,-0.012380878441035748,
7.3174999999999999,-0.01829485222697258,
7.3200000000000003,-0.04723966121673584,
7.3224999999999998,-0.07027050107717514,
7.3250000000000002,-0.098229646682739258,
7.3274999999999997,-0.12984296679496765,
7.3300000000000001,-0.19655546545982361,
7.3324999999999996,-0.22663018107414246,
7.335,-0.25059860944747925,
7.3375000000000004,-0.26523929834365845,
7.3399999999999999,-0.2536277174949646,
7.3425000000000002,-0.22170186042785645,
7.3449999999999998,-0.16958197951316833,
7.3475000000000001,-0.096282362937927246,
7.3499999999999996,0.11135578155517578,
7.3525,0.24069389700889587,
7.3550000000000004,0.38101851940155029,
7.3574999999999999,0.52603107690811157,
7.3600000000000003,0.66813468933105469,
7.3624999999999998,0.9107518196105957,
7.3650000000000002,0.99535048007965088,
7.3674999999999997,1.0466771125793457,
7.3700000000000001,1.0355463027954102,
7.3724999999999996,0.97284853458404541,
7.375,0.87663829326629639,
7.3775000000000004,0.75357478857040405,
7.3799999999999999,0.46215534210205078,
7.3825000000000003,0.31310400366783142,
7.3849999999999998,0.17390927672386169,
7.3875000000000002,0.05185544490814209,
7.3899999999999997,-0.12296736240386963,
7.3925000000000001,-0.17299573123455048,
7.3949999999999996,-0.19999325275421143,
7.3975,-0.20759007334709167,
7.4000000000000004,-0.18309275805950165,
7.4024999999999999,-0.16051869094371796,
7.4050000000000002,-0.13655027747154236,
7.4074999999999998,-0.11409640312194824,
7.4100000000000001,-0.079934798181056976,
7.4124999999999996,-0.069020390510559082,
7.415,-0.061591863632202148,
7.4175000000000004,-0.056783758103847504,
7.4199999999999999,-0.051470797508955002,
7.4225000000000003,-0.049643717706203461,
7.4249999999999998,-0.047960877418518066,
7.4275000000000002,-0.046398244798183441,
7.4299999999999997,-0.044210553169250488,
7.4325000000000001,-0.043873988091945648,
7.4349999999999996,-0.044090352952480316,
7.4375,-0.044715404510498047,
7.4400000000000004,-0.045725107192993164,
7.4424999999999999,-0.045268338173627853,
7.4450000000000003,-0.043609540909528732,
7.4474999999999998,-0.04046022891998291,
7.4500000000000002,-0.029329460114240646,
7.4524999999999997,-0.021612446755170822,
7.4550000000000001,-0.012933811172842979,
7.4574999999999996,-0.0037743649445474148,
7.46,0.013775229454040527,
7.4625000000000004,0.02108355425298214,
7.4649999999999999,0.026805203408002853,
7.4675000000000002,0.030627649277448654,
7.4699999999999998,0.032070081681013107,
7.4725000000000001,0.029930472373962402,
7.4749999999999996,0.02632439136505127,
7.4775,0.021756689995527267,
7.4800000000000004,0.012308756820857525,
7.4824999999999999,0.0086786355823278427,
7.4850000000000003,0.0064669055864214897,
7.4874999999999998,0.0060101351700723171,
7.4900000000000002,0.010577837936580181,
7.4924999999999997,0.015193621627986431,
7.4950000000000001,0.020843148231506348,
7.4974999999999996,0.027021568268537521,
7.5,0.038897596299648285,
7.5025000000000004,0.0438259057700634,
7.5049999999999999,0.047720473259687424,
7.5075000000000003,0.050557255744934082,
7.5099999999999998,0.053466163575649261,
7.5125000000000002,0.054043136537075043,
7.5149999999999997,0.054475866258144379,
7.5175000000000001,0.055100917816162109,
7.5199999999999996,0.058178108185529709,
7.5225,0.06108701229095459,
7.5250000000000004,0.065053701400756836,
7.5274999999999999,0.070102214813232422,
7.5300000000000002,0.082963906228542328,
7.5324999999999998,0.090440511703491211,
7.5350000000000001,0.098373889923095703,
7.5374999999999996,0.10654767602682114,
7.54,0.12306352704763412,
7.5425000000000004,0.13123731315135956,
7.5449999999999999,0.13926684856414795,
7.5475000000000003,0.14712810516357422,
7.5499999999999998,0.16241788864135742,
7.5525000000000002,0.169798344373703,
7.5549999999999997,0.17691433429718018,
7.5575000000000001,0.18369376659393311,
7.5599999999999996,0.19593040645122528,
7.5625,0.20119528472423553,
7.5650000000000004,0.20585915446281433,
7.5674999999999999,0.2099941223859787,
7.5700000000000003,0.21720628440380096,
7.5724999999999998,0.22078832983970642,
7.5750000000000002,0.2246348112821579,
7.5774999999999997,0.22898614406585693,
7.5800000000000001,0.23934762179851532,
7.5824999999999996,0.24497310817241669,
7.585,0.25023800134658813,
7.5875000000000004,0.2544691264629364,
7.5899999999999999,0.25677701830863953,
7.5925000000000002,0.25341135263442993,
7.5949999999999998,0.24643957614898682,
7.5975000000000001,0.23569345474243164,
7.5999999999999996,0.22138933837413788,
7.6025,0.18424670398235321,
7.6050000000000004,0.16297082602977753,
7.6074999999999999,0.14102181792259216,
7.6100000000000003,0.098109446465969086,
7.6124999999999998,0.078276000916957855,
7.6150000000000002,0.060029231011867523,
7.6174999999999997,0.043489336967468262,
7.6200000000000001,0.015890797600150108,
7.6224999999999996,0.004832148551940918,
7.625,-0.0044234595261514187,
7.6275000000000004,-0.012020270340144634,
7.6299999999999999,-0.022622149437665939,
7.6325000000000003,-0.026108026504516602,
7.6349999999999998,-0.028824608772993088,
7.6375000000000002,-0.031180581077933311,
7.6399999999999997,-0.036397378891706467,
7.6425000000000001,-0.039907298982143402,
7.6449999999999996,-0.044282674789428711,
7.6475,-0.049475431442260742,
7.6500000000000004,-0.061327420175075531,
7.6524999999999999,-0.067145228385925293,
7.6550000000000002,-0.072193741798400879,
7.6574999999999998,-0.07601618766784668,
7.6600000000000001,-0.078901052474975586,
