Data Set 1:Time(s),Data Set 1:EKG(mV),Data Set 1:Heart Rate(bpm)
0,-0.080439649522304535,88.23529052734375
0.0025000000000000001,-0.083204314112663269,
0.0050000000000000001,-0.086521908640861511,
0.0074999999999999997,-0.089791417121887207,
0.01,-0.092435881495475769,
0.012500000000000001,-0.094118714332580566,
0.014999999999999999,-0.09334941953420639,
0.017500000000000002,-0.092027187347412109,
0.02,-0.090753041207790375,
0.022499999999999999,-0.089406773447990417,
0.025000000000000001,-0.089502930641174316,
0.0275,-0.090079903602600098,
0.029999999999999999,-0.091065570712089539,
0.032500000000000001,-0.09414275735616684,
0.035000000000000003,-0.09625832736492157,
0.037499999999999999,-0.098854705691337585,
0.040000000000000001,-0.10195593535900116,
0.042500000000000003,-0.10943254083395004,
0.044999999999999998,-0.11339922994375229,
0.047500000000000001,-0.11700531095266342,
0.050000000000000003,-0.11984209716320038,
0.052499999999999998,-0.12176533788442612,
0.055,-0.12037098407745361,
0.057500000000000002,-0.11738996207714081,
0.059999999999999998,-0.11299054324626923,
0.0625,-0.10137896239757538,
0.065000000000000002,-0.095128417015075684,
0.067500000000000004,-0.089166365563869476,
0.070000000000000007,-0.083949565887451172,
0.072499999999999995,-0.077194176614284515,
0.074999999999999997,-0.076040230691432953,
0.077499999999999999,-0.076472960412502289,
0.080000000000000002,-0.078324079513549805,
0.082500000000000004,-0.085223719477653503,
0.085000000000000006,-0.089406773447990417,
0.087499999999999994,-0.09339749813079834,
0.089999999999999997,-0.096739135682582855,
0.092499999999999999,-0.10000865161418915,
0.095000000000000001,-0.099696122109889984,
0.097500000000000003,-0.098205611109733582,
0.10000000000000001,-0.09584963321685791,
0.10249999999999999,-0.090127989649772644,
0.105,-0.087507568299770355,
0.1075,-0.085416041314601898,
0.11,-0.083901487290859222,
0.1125,-0.082963906228542328,
0.115,-0.082242690026760101,
0.11749999999999999,-0.082122489809989929,
0.12,-0.082026325166225433,
0.1225,-0.08200228214263916,
0.125,-0.082242690026760101,
0.1275,-0.082723498344421387,
0.13,-0.083516836166381836,
0.13250000000000001,-0.084598660469055176,
0.13500000000000001,-0.087050795555114746,
0.13750000000000001,-0.088060498237609863,
0.14000000000000001,-0.088637471199035645,
0.14249999999999999,-0.088661514222621918,
0.14499999999999999,-0.086882516741752625,
0.14749999999999999,-0.085271798074245453,
0.14999999999999999,-0.083396635949611664,
0.1525,-0.081521473824977875,
0.155,-0.078588530421257019,
0.1575,-0.077819228172302246,
0.16,-0.077602863311767578,
0.16250000000000001,-0.078564487397670746,
0.16500000000000001,-0.079478025436401367,
0.16750000000000001,-0.080463692545890808,
0.17000000000000001,-0.08132915198802948,
0.17249999999999999,-0.082074403762817383,
0.17499999999999999,-0.081737838685512543,
0.17749999999999999,-0.080896422266960144,
0.17999999999999999,-0.079453989863395691,
0.1825,-0.077458620071411133,
0.185,-0.071905255317687988,
0.1875,-0.068443417549133301,
0.19,-0.064669057726860046,
0.1925,-0.056903958320617676,
0.19500000000000001,-0.053466163575649261,
0.19750000000000001,-0.050725542008876801,
0.20000000000000001,-0.048970580101013184,
0.20250000000000001,-0.04844168946146965,
0.20499999999999999,-0.051326554268598557,
0.20749999999999999,-0.054427783936262131,
0.20999999999999999,-0.058105986565351486,
0.21249999999999999,-0.061880350112915039,
0.215,-0.067169271409511566,
0.2175,-0.067674122750759125,
0.22,-0.066255733370780945,
0.2225,-0.062817931175231934,
0.22500000000000001,-0.050485134124755859,
0.22750000000000001,-0.042311351746320724,
0.23000000000000001,-0.033488474786281586,
0.23250000000000001,-0.02461751364171505,
0.23499999999999999,-0.0089671220630407333,
0.23749999999999999,-0.0031493108253926039,
0.23999999999999999,0.00079333782196044922,
0.24249999999999999,0.0026684999465942383,
0.245,2.4040540665737353e-05,
0.2475,-0.0041830539703369141,
0.25,-0.0099287433549761772,
0.2525,-0.016660094261169434,
0.255,-0.031036337837576866,
0.25750000000000001,-0.037599407136440277,
0.26000000000000001,-0.043200850486755371,
0.26250000000000001,-0.047600269317626953,
0.26500000000000001,-0.053033433854579926,
0.26750000000000002,-0.054572027176618576,
0.27000000000000002,-0.055870216339826584,
0.27250000000000002,-0.057432852685451508,
0.27500000000000002,-0.062697730958461761,
0.27750000000000002,-0.066688463091850281,
0.28000000000000003,-0.071376368403434753,
0.28249999999999997,-0.076280638575553894,
0.28499999999999998,-0.084502503275871277,
0.28749999999999998,-0.086497865617275238,
0.28999999999999998,-0.086497865617275238,
0.29249999999999998,-0.084334217011928558,
0.29499999999999998,-0.075078606605529785,
0.29749999999999999,-0.069693528115749359,
0.29999999999999999,-0.065486431121826172,
0.30249999999999999,-0.06394784152507782,
0.30499999999999999,-0.074165068566799164,
0.3075,-0.087844133377075195,
0.31,-0.1076054573059082,
0.3125,-0.13299226760864258,
0.315,-0.19511303305625916,
0.3175,-0.22754371166229248,
0.32000000000000001,-0.25716167688369751,
0.32250000000000001,-0.28064927458763123,
0.32500000000000001,-0.29507359862327576,
0.32750000000000001,-0.27903854846954346,
0.33000000000000002,-0.24333834648132324,
0.33250000000000002,-0.18561701476573944,
0.33500000000000002,-0.00033656758023425937,
0.33750000000000002,0.12556374073028564,
0.34000000000000002,0.26951849460601807,
0.34250000000000003,0.42607051134109497,
0.34499999999999997,0.74653089046478271,
0.34749999999999998,0.892192542552948,
0.34999999999999998,1.0153042078018188,
0.35249999999999998,1.1070429086685181,
0.35499999999999998,1.1702214479446411,
0.35749999999999998,1.1354588270187378,
0.35999999999999999,1.0577597618103027,
0.36249999999999999,0.942268967628479,
0.36499999999999999,0.63190561532974243,
0.36749999999999999,0.45838099718093872,
0.37,0.28762102127075195,
0.3725,0.12981891632080078,
0.375,-0.11635621637105942,
0.3775,-0.19624292850494385,
0.38,-0.24641554057598114,
0.38250000000000001,-0.26942235231399536,
0.38500000000000001,-0.25276225805282593,
0.38750000000000001,-0.2246348112821579,
0.39000000000000001,-0.19092997908592224,
0.39250000000000002,-0.15652796626091003,
0.39500000000000002,-0.098902784287929535,
0.39750000000000002,-0.079093381762504578,
0.40000000000000002,-0.06565471738576889,
0.40250000000000002,-0.05784153938293457,
0.40500000000000003,-0.053850810974836349,
0.40749999999999997,-0.054932635277509689,
0.40999999999999998,-0.056447189301252365,
0.41249999999999998,-0.057601135224103928,
0.41499999999999998,-0.057120323181152344,
0.41749999999999998,-0.055317282676696777,
0.41999999999999998,-0.052624743431806564,
0.42249999999999999,-0.049307148903608322,
0.42499999999999999,-0.041782461106777191,
0.42749999999999999,-0.038032136857509613,
0.42999999999999999,-0.034546256065368652,
0.4325,-0.031493108719587326,
0.435,-0.027165811508893967,
0.4375,-0.026059946045279503,
0.44,-0.02569933794438839,
0.4425,-0.025939743965864182,
0.44500000000000001,-0.027382176369428635,
0.44750000000000001,-0.027814906090497971,
0.45000000000000001,-0.027550458908081055,
0.45250000000000001,-0.026228230446577072,
0.45500000000000002,-0.019857486709952354,
0.45750000000000002,-0.015049378387629986,
0.46000000000000002,-0.0097364187240600586,
0.46250000000000002,-0.0044475002214312553,
0.46500000000000002,0.0036060810089111328,
0.46750000000000003,0.0055533647537231445,
0.46999999999999997,0.0060101351700723171,
0.47249999999999998,0.0053129596635699272,
0.47499999999999998,0.0029569864273071289,
0.47749999999999998,0.0029089055024087429,
0.47999999999999998,0.004567702766507864,
0.48249999999999998,0.0083901491016149521,
0.48499999999999999,0.022574067115783691,
0.48749999999999999,0.03214220330119133,
0.48999999999999999,0.042479634284973145,
0.49249999999999999,0.052696865051984787,
0.495,0.070078179240226746,
0.4975,0.076352760195732117,
0.5,0.08092045783996582,
0.50249999999999995,0.084021687507629395,
0.505,0.087723933160305023,
0.50749999999999995,0.089430809020996094,
0.51000000000000001,0.091666579246520996,
0.51249999999999996,0.094791851937770844,
0.51500000000000001,0.10402341932058334,
0.51749999999999996,0.10996143519878387,
0.52000000000000002,0.11642833799123764,
0.52249999999999996,0.12315969169139862,
0.52500000000000002,0.13638198375701904,
0.52749999999999997,0.14253637194633484,
0.53000000000000003,0.148354172706604,
0.53249999999999997,0.15388350188732147,
0.53500000000000003,0.1645815372467041,
0.53749999999999998,0.17003874480724335,
0.54000000000000004,0.17568826675415039,
0.54249999999999998,0.18162629008293152,
0.54500000000000004,0.19405524432659149,
0.54749999999999999,0.20032982528209686,
0.55000000000000004,0.20643612742424011,
0.55249999999999999,0.21215777099132538,
0.55500000000000005,0.2215576171875,
0.5575,0.22489926218986511,
0.56000000000000005,0.22713503241539001,
0.5625,0.22821685671806335,
0.56499999999999995,0.22689461708068848,
0.5675,0.22470693290233612,
0.56999999999999995,0.22174994647502899,
0.57250000000000001,0.21814386546611786,
0.57499999999999996,0.20951330661773682,
0.57750000000000001,0.20451287925243378,
0.57999999999999996,0.19891142845153809,
0.58250000000000002,0.19251665472984314,
0.58499999999999996,0.1762412041425705,
0.58750000000000002,0.1659758985042572,
0.58999999999999997,0.15417198836803436,
0.59250000000000003,0.14092564582824707,
0.59499999999999997,0.11123558133840561,
0.59750000000000003,0.095585189759731293,
0.59999999999999998,0.07995884120464325,
0.60250000000000004,0.064765214920043945,
0.60499999999999998,0.036541622132062912,
0.60750000000000004,0.023728013038635254,
0.60999999999999999,0.011755824089050293,
0.61250000000000004,0.00062505406094714999,
0.61499999999999999,-0.019256472587585449,
0.61750000000000005,-0.027911067008972168,
0.62,-0.03550788015127182,
0.62250000000000005,-0.041902661323547363,
0.625,-0.05060533806681633,
0.62749999999999995,-0.052961312234401703,
0.63,-0.054235458374023438,
0.63249999999999995,-0.054836474359035492,
0.63500000000000001,-0.055990420281887054,
0.63749999999999996,-0.057649217545986176,
0.64000000000000001,-0.060630243271589279,
0.64249999999999996,-0.065101787447929382,
0.64500000000000002,-0.078372165560722351,
0.64749999999999996,-0.086425743997097015,
0.65000000000000002,-0.094575487077236176,
0.65249999999999997,-0.1021001785993576,
0.65500000000000003,-0.11260589212179184,
0.65749999999999997,-0.11462529748678207,
0.66000000000000003,-0.11421661078929901,
0.66249999999999998,-0.11150002479553223,
0.66500000000000004,-0.10092218965291977,
0.66749999999999998,-0.094214878976345062,
0.67000000000000004,-0.087435446679592133,
0.67249999999999999,-0.081184908747673035,
0.67500000000000004,-0.071953341364860535,
0.67749999999999999,-0.069380998611450195,
0.68000000000000005,-0.068178974092006683,
0.6825,-0.06815493106842041,
0.68500000000000005,-0.070631109178066254,
0.6875,-0.07243414968252182,
0.68999999999999995,-0.074213147163391113,
0.6925,-0.075751744210720062,
0.69499999999999995,-0.077602863311767578,
0.69750000000000001,-0.077915392816066742,
0.69999999999999996,-0.077915392816066742,
0.70250000000000001,-0.077771149575710297,
0.70499999999999996,-0.077482663094997406,
0.70750000000000002,-0.077554784715175629,
0.70999999999999996,-0.077723070979118347,
0.71250000000000002,-0.077963471412658691,
0.71499999999999997,-0.078492365777492523,
0.71750000000000003,-0.078708730638027191,
0.71999999999999997,-0.079021260142326355,
0.72250000000000003,-0.07955014705657959,
0.72499999999999998,-0.081978246569633484,
0.72750000000000004,-0.084093809127807617,
0.72999999999999998,-0.086810395121574402,
0.73250000000000004,-0.089911624789237976,
0.73499999999999999,-0.095753476023674011,
0.73750000000000004,-0.097556516528129578,
0.73999999999999999,-0.097989246249198914,
0.74250000000000005,-0.096739135682582855,
0.745,-0.088901922106742859,
0.74750000000000005,-0.082771584391593933,
0.75,-0.075775787234306335,
0.75249999999999995,-0.06856362521648407,
0.755,-0.056038498878479004,
0.75749999999999995,-0.051711201667785645,
0.76000000000000001,-0.049066744744777679,
0.76249999999999996,-0.04815320298075676,
0.76500000000000001,-0.050653420388698578,
0.76749999999999996,-0.053345959633588791,
0.77000000000000002,-0.056375067681074142,
0.77249999999999996,-0.059356093406677246,
0.77500000000000002,-0.063899755477905273,
0.77749999999999997,-0.065077744424343109,
0.78000000000000003,-0.065534517168998718,
0.78249999999999997,-0.06531815230846405,
0.78500000000000003,-0.063707433640956879,
0.78749999999999998,-0.062649652361869812,
0.79000000000000004,-0.061663985252380371,
0.79249999999999998,-0.060846608132123947,
0.79500000000000004,-0.05983690544962883,
0.79749999999999999,-0.059620540589094162,
0.80000000000000004,-0.059476297348737717,
0.80249999999999999,-0.059308014810085297,
0.80500000000000005,-0.058682959526777267,
0.8075,-0.058081947267055511,
0.81000000000000005,-0.057288609445095062,
0.8125,-0.056326985359191895,
0.81499999999999995,-0.054283540695905685,
0.8175,-0.053466163575649261,
0.81999999999999995,-0.052985351532697678,
0.82250000000000001,-0.052961312234401703,
0.82499999999999996,-0.054523944854736328,
0.82750000000000001,-0.055990420281887054,
0.82999999999999996,-0.057745378464460373,
0.83250000000000002,-0.059548418968915939,
0.83499999999999996,-0.062240958213806152,
0.83750000000000002,-0.062673687934875488,
0.83999999999999997,-0.062313079833984375,
0.84250000000000003,-0.061183176934719086,
0.84499999999999997,-0.057144366204738617,
0.84750000000000003,-0.054716270416975021,
0.84999999999999998,-0.052336256951093674,
0.85250000000000004,-0.050268769264221191,
0.85499999999999998,-0.047672390937805176,
0.85750000000000004,-0.04719158262014389,
0.85999999999999999,-0.047095417976379395,
0.86250000000000004,-0.047143500298261642,
0.86499999999999999,-0.046686731278896332,
0.86750000000000005,-0.045701067894697189,
0.87,-0.043970149010419846,
0.87250000000000005,-0.041566096246242523,
0.875,-0.035435758531093597,
0.87749999999999995,-0.032478772103786469,
0.88,-0.030267041176557541,
0.88249999999999995,-0.029281377792358398,
0.88500000000000001,-0.032358568161725998,
0.88749999999999996,-0.036565661430358887,
0.89000000000000001,-0.042167108505964279,
0.89249999999999996,-0.04860997200012207,
0.89500000000000002,-0.060798525810241699,
0.89749999999999996,-0.064933501183986664,
0.90000000000000002,-0.066880784928798676,
0.90249999999999997,-0.066303811967372894,
0.90500000000000003,-0.057985782623291016,
0.90749999999999997,-0.051206350326538086,
0.91000000000000003,-0.043681662529706955,
0.91249999999999998,-0.036277174949645996,
0.91500000000000004,-0.024641554802656174,
0.91749999999999998,-0.021347999572753906,
0.92000000000000004,-0.019929608330130577,
0.92249999999999999,-0.020145973190665245,
0.92500000000000004,-0.023920338600873947,
0.92749999999999999,-0.02644459530711174,
0.93000000000000005,-0.028728445991873741,
0.9325,-0.030435323715209961,
0.93500000000000005,-0.031348865479230881,
0.9375,-0.030627649277448654,
0.93999999999999995,-0.029329460114240646,
0.9425,-0.0276947021484375,
0.94499999999999995,-0.024521350860595703,
0.94750000000000001,-0.023343365639448166,
0.94999999999999996,-0.022574067115783691,
0.95250000000000001,-0.022213459014892578,
0.95499999999999996,-0.022093256935477257,
0.95750000000000002,-0.021876892074942589,
0.95999999999999996,-0.021155675873160362,
0.96250000000000002,-0.019593041390180588,
0.96499999999999997,-0.012909770011901855,
0.96750000000000003,-0.0075006484985351562,
0.96999999999999997,-0.00072121620178222656,
0.97250000000000003,0.0071881217882037163,
0.97499999999999998,0.02461751364171505,
0.97750000000000004,0.032839380204677582,
0.97999999999999998,0.039763055741786957,
0.98250000000000004,0.044691365212202072,
0.98499999999999999,0.046494405716657639,
0.98750000000000004,0.042984485626220703,
0.98999999999999999,0.03675798699259758,
0.99250000000000005,0.028295716270804405,
0.995,0.0075487298890948296,
0.99750000000000005,-0.0031012296676635742,
1,-0.012957851402461529,89.552238464355469
1.0024999999999999,-0.021468203514814377,
1.0049999999999999,-0.03322402760386467,
1.0075000000000001,-0.036421418190002441,
1.01,-0.038032136857509613,
1.0125,-0.038368701934814453,
1.0149999999999999,-0.036637783050537109,
1.0175000000000001,-0.035243432968854904,
1.02,-0.033849082887172699,
1.0225,-0.032695136964321136,
1.0249999999999999,-0.031565230339765549,
1.0275000000000001,-0.031709473580121994,
1.03,-0.032286446541547775,
1.0325,-0.03334423154592514,
1.0349999999999999,-0.037094555795192719,
1.0375000000000001,-0.040147703140974045,
1.04,-0.044523082673549652,
1.0425,-0.050725542008876801,
1.0449999999999999,-0.071087881922721863,
1.0475000000000001,-0.086257457733154297,
1.05,-0.10503312200307846,
1.0525,-0.12715041637420654,
1.0549999999999999,-0.17761151492595673,
1.0575000000000001,-0.20266175270080566,
1.0600000000000001,-0.22441844642162323,
1.0625,-0.240020751953125,
1.0649999999999999,-0.24004480242729187,
1.0674999999999999,-0.21821598708629608,
1.0700000000000001,-0.17821252346038818,
1.0725,-0.11815925687551498,
1.075,0.06428440660238266,
1.0774999999999999,0.18429479002952576,
1.0800000000000001,0.31923434138298035,
1.0825,0.46379011869430542,
1.085,0.75323820114135742,
1.0874999999999999,0.88144642114639282,
1.0900000000000001,0.98720073699951172,
1.0925,1.0627361536026001,
1.095,1.1012250185012817,
1.0974999999999999,1.0597550868988037,
1.1000000000000001,0.97989243268966675,
1.1025,0.86702209711074829,
1.105,0.57574689388275146,
1.1074999999999999,0.4176563024520874,
1.1100000000000001,0.26511907577514648,
1.1125,0.12712638080120087,
1.115,-0.079982876777648926,
1.1174999999999999,-0.14340183138847351,
1.1200000000000001,-0.18078486621379852,
1.1225000000000001,-0.19561788439750671,
1.125,-0.17806828022003174,
1.1274999999999999,-0.15700876712799072,
1.1299999999999999,-0.13443470001220703,
1.1325000000000001,-0.11409640312194824,
1.135,-0.087675854563713074,
1.1375,-0.082122489809989929,
1.1399999999999999,-0.080415606498718262,
1.1425000000000001,-0.080848336219787598,
1.145,-0.081593595445156097,
1.1475,-0.079357825219631195,
1.1499999999999999,-0.074501633644104004,
1.1525000000000001,-0.067097149789333344,
1.155,-0.046855013817548752,
1.1575,-0.035796366631984711,
1.1599999999999999,-0.025434892624616623,
1.1625000000000001,-0.016587972640991211,
1.165,-0.0056014461442828178,
1.1675,-0.0037743649445474148,
1.1699999999999999,-0.0041109323501586914,
1.1725000000000001,-0.0061062974855303764,
1.175,-0.012501081451773643,
1.1775,-0.015602311119437218,
1.1799999999999999,-0.017910202965140343,
1.1825000000000001,-0.019112229347229004,
1.1850000000000001,-0.017717879265546799,
1.1875,-0.015265743248164654,
1.1899999999999999,-0.011900067329406738,
1.1924999999999999,-0.0078372163698077202,
1.1950000000000001,0.0015626351814717054,
1.1975,0.0065390272065997124,
1.2,0.011563500389456749,
1.2024999999999999,0.01646777056157589,
1.2050000000000001,0.0253627710044384,
1.2075,0.029016932472586632,
1.21,0.031925838440656662,
1.2124999999999999,0.033993326127529144,
1.2150000000000001,0.03567616268992424,
1.2175,0.035652123391628265,
1.22,0.035483837127685547,
1.2224999999999999,0.035628080368041992,
1.2250000000000001,0.038561027497053146,
1.2275,0.042046904563903809,
1.23,0.047095417976379395,
1.2324999999999999,0.053586363792419434,
1.2350000000000001,0.069573327898979187,
1.2375,0.078059636056423187,
1.24,0.086161300539970398,
1.2424999999999999,0.09339749813079834,
1.2450000000000001,0.10435998439788818,
1.2475000000000001,0.10820647329092026,
1.25,0.11135578155517578,
1.2524999999999999,0.11426468938589096,
1.2549999999999999,0.12099604308605194,
1.2575000000000001,0.12539546191692352,
1.26,0.13051609694957733,
1.2625,0.1361415833234787,
1.2649999999999999,0.14732043445110321,
1.2675000000000001,0.1521766185760498,
1.27,0.15621542930603027,
1.2725,0.15950898826122284,
