Data Set 1:Time(s),Data Set 1:EKG(mV),Data Set 1:Heart Rate(bpm)
0,0.039955377578735352,88.23529052734375
0.0025000000000000001,0.041109323501586914,
0.0050000000000000001,0.041325688362121582,
0.0074999999999999997,0.040628515183925629,
0.01,0.039258204400539398,
0.012500000000000001,0.037527285516262054,
0.014999999999999999,0.033873122185468674,
0.017500000000000002,0.032214324921369553,
0.02,0.030675729736685753,
0.022499999999999999,0.028007229790091515,
0.025000000000000001,0.02752641960978508,
0.0275,0.028464000672101974,
0.029999999999999999,0.031805634498596191,
0.032500000000000001,0.049571596086025238,
0.035000000000000003,0.064813300967216492,
0.037499999999999999,0.083396635949611664,
0.040000000000000001,0.10327816009521484,
0.042500000000000003,0.13376156985759735,
0.044999999999999998,0.13655027747154236,
0.047500000000000001,0.12638112902641296,
0.050000000000000003,0.10130684077739716,
0.052499999999999998,0.009255608543753624,
0.055,-0.050533216446638107,
0.057500000000000002,-0.11137982457876205,
0.059999999999999998,-0.16568741202354431,
0.0625,-0.22547623515129089,
0.065000000000000002,-0.22004306316375732,
0.067500000000000004,-0.18768450617790222,
0.070000000000000007,-0.12933811545372009,
0.072499999999999995,0.04952351376414299,
0.074999999999999997,0.15787422657012939,
0.077499999999999999,0.26947042346000671,
0.080000000000000002,0.37753266096115112,
0.082500000000000004,0.55978399515151978,
0.085000000000000006,0.62495791912078857,
0.087499999999999994,0.66844725608825684,
0.089999999999999997,0.68799221515655518,
0.092499999999999999,0.64976775646209717,
0.095000000000000001,0.59158962965011597,
0.097500000000000003,0.50913059711456299,
0.10000000000000001,0.40570816397666931,
0.10249999999999999,0.15780210494995117,
0.105,0.028103392571210861,
0.1075,-0.094238921999931335,
0.11,-0.20114719867706299,
0.1125,-0.34411630034446716,
0.115,-0.37433525919914246,
0.11749999999999999,-0.37808558344841003,
0.12,-0.35967051982879639,
0.1225,-0.28264462947845459,
0.125,-0.2384340763092041,
0.1275,-0.19874314963817596,
0.13,-0.1675625741481781,
0.13250000000000001,-0.13551652431488037,
0.13500000000000001,-0.13210277259349823,
0.13750000000000001,-0.13335287570953369,
0.14000000000000001,-0.1360454261302948,
0.14249999999999999,-0.13621370494365692,
0.14499999999999999,-0.13154983520507812,
0.14749999999999999,-0.12419342994689941,
0.14999999999999999,-0.1153465136885643,
0.1525,-0.099071070551872253,
0.155,-0.093782149255275726,
0.1575,-0.090825162827968597,
0.16,-0.089743338525295258,
0.16250000000000001,-0.089791417121887207,
0.16500000000000001,-0.089094243943691254,
0.16750000000000001,-0.087074838578701019,
0.17000000000000001,-0.083564922213554382,
0.17249999999999999,-0.073131322860717773,
0.17499999999999999,-0.067337557673454285,
0.17749999999999999,-0.061928432434797287,
0.17999999999999999,-0.057432852685451508,
0.1825,-0.052240096032619476,
0.185,-0.051615040749311447,
0.1875,-0.052095852792263031,
0.19,-0.053418081253767014,
0.1925,-0.056976079940795898,
0.19500000000000001,-0.058418512344360352,
0.19750000000000001,-0.058995485305786133,
0.20000000000000001,-0.058418512344360352,
0.20250000000000001,-0.052961312234401703,
0.20499999999999999,-0.048129163682460785,
0.20749999999999999,-0.042263269424438477,
0.20999999999999999,-0.035772323608398438,
0.21249999999999999,-0.022766392678022385,
0.215,-0.017116865143179893,
0.2175,-0.012356838211417198,
0.22,-0.0085824728012084961,
0.2225,-0.0036782026290893555,
0.22500000000000001,-0.0022117297630757093,
0.22750000000000001,-0.0011539459228515625,
0.23000000000000001,-0.00028848648071289062,
0.23250000000000001,0.0015866756439208984,
0.23499999999999999,0.0029089055024087429,
0.23749999999999999,0.0047600269317626953,
0.23999999999999999,0.0072842836380004883,
0.24249999999999999,0.014736851677298546,
0.245,0.019737284630537033,
0.2475,0.025410851463675499,
0.25,0.031637351959943771,
0.2525,0.044859647750854492,
0.255,0.051398675888776779,
0.25750000000000001,0.057769417762756348,
0.26000000000000001,0.063899755477905273,
0.26250000000000001,0.075559422373771667,
0.26500000000000001,0.081305108964443207,
0.26750000000000002,0.087098881602287292,
0.27000000000000002,0.093036890029907227,
0.27250000000000002,0.10534565150737762,
0.27500000000000002,0.11157214641571045,
0.27750000000000002,0.11775057017803192,
0.28000000000000003,0.12368857860565186,
0.28249999999999997,0.13443470001220703,
0.28499999999999998,0.13905048370361328,
0.28749999999999998,0.1431373804807663,
0.28999999999999998,0.14674346148967743,
0.29249999999999998,0.15309016406536102,
0.29499999999999998,0.15607118606567383,
0.29749999999999999,0.15914838016033173,
0.29999999999999999,0.1623457670211792,
0.30249999999999999,0.16864439845085144,
0.30499999999999999,0.17136096954345703,
0.3075,0.17330825328826904,
0.31,0.17422179877758026,
0.3125,0.17203411459922791,
0.315,0.16874055564403534,
0.3175,0.16405265033245087,
0.32000000000000001,0.15813867747783661,
0.32250000000000001,0.14337778091430664,
0.32500000000000001,0.13486742973327637,
0.32750000000000001,0.12570798397064209,
0.33000000000000002,0.11597156524658203,
0.33250000000000002,0.094888016581535339,
0.33500000000000002,0.083685122430324554,
0.33750000000000002,0.072241827845573425,
0.34000000000000002,0.06075044721364975,
0.34250000000000003,0.038440823554992676,
0.34499999999999997,0.027935108169913292,
0.34749999999999998,0.017886161804199219,
0.34999999999999998,0.0082699460908770561,
0.35249999999999998,-0.010217229835689068,
0.35499999999999998,-0.019496878609061241,
0.35749999999999998,-0.029016932472586632,
0.35999999999999999,-0.038849513977766037,
0.36249999999999999,-0.059235893189907074,
0.36499999999999999,-0.069356963038444519,
0.36749999999999999,-0.078949138522148132,
0.37,-0.087555646896362305,
0.3725,-0.099768243730068207,
0.375,-0.10265310853719711,
0.3775,-0.10318200290203094,
0.38,-0.10149916261434555,
0.38250000000000001,-0.093589827418327332,
0.38500000000000001,-0.088925957679748535,
0.38750000000000001,-0.084959268569946289,
0.39000000000000001,-0.082459054887294769,
0.39250000000000002,-0.083685122430324554,
0.39500000000000002,-0.087507568299770355,
0.39750000000000002,-0.092964768409729004,
0.40000000000000002,-0.099359557032585144,
0.40250000000000002,-0.11219720542430878,
0.40500000000000003,-0.11741399765014648,
0.40749999999999997,-0.12138068675994873,
0.40999999999999998,-0.12402515113353729,
0.41249999999999998,-0.12587627768516541,
0.41499999999999998,-0.12563586235046387,
0.41749999999999998,-0.12501081824302673,
0.41999999999999998,-0.12416939437389374,
0.42249999999999999,-0.12246251106262207,
0.42499999999999999,-0.12169321626424789,
0.42749999999999999,-0.12104412168264389,
0.42999999999999999,-0.12049119174480438,
0.4325,-0.11938532441854477,
0.435,-0.11868815124034882,
0.4375,-0.1177746057510376,
0.44,-0.11659662425518036,
0.4425,-0.11368771642446518,
0.44500000000000001,-0.11222124099731445,
0.44750000000000001,-0.11109133809804916,
0.45000000000000001,-0.11051436513662338,
0.45250000000000001,-0.11159618943929672,
0.45500000000000002,-0.11320690810680389,
0.45750000000000002,-0.1152503490447998,
0.46000000000000002,-0.11736591905355453,
0.46250000000000002,-0.1205633133649826,
0.46500000000000002,-0.12116432189941406,
0.46750000000000003,-0.12106816470623016,
0.46999999999999997,-0.12041907012462616,
0.47249999999999998,-0.1185198649764061,
0.47499999999999998,-0.11779864877462387,
0.47749999999999998,-0.11743804067373276,
0.47999999999999998,-0.11748611927032471,
0.48249999999999998,-0.11844774335622787,
0.48499999999999999,-0.11897663772106171,
0.48749999999999999,-0.11928915977478027,
0.48999999999999999,-0.11921703815460205,
0.49249999999999999,-0.1175822839140892,
0.495,-0.11594752967357635,
0.4975,-0.11380791664123535,
0.5,-0.11121153831481934,
0.50249999999999995,-0.10544180870056152,
0.505,-0.10270118713378906,
0.50749999999999995,-0.10046541690826416,
0.51000000000000001,-0.098974905908107758,
0.51249999999999996,-0.098902784287929535,
0.51500000000000001,-0.10032117366790771,
0.51749999999999996,-0.10248482227325439,
0.52000000000000002,-0.10498504340648651,
0.52249999999999996,-0.10952870547771454,
0.52500000000000002,-0.11080285161733627,
0.52749999999999997,-0.11113941669464111,
0.53000000000000003,-0.11049032211303711,
0.53249999999999997,-0.10649959743022919,
0.53500000000000003,-0.10361473262310028,
0.53749999999999998,-0.10046541690826416,
0.54000000000000004,-0.097292065620422363,
0.54249999999999998,-0.091882944107055664,
0.54500000000000004,-0.090007781982421875,
0.54749999999999999,-0.088925957679748535,
0.55000000000000004,-0.088685557246208191,
0.55249999999999999,-0.090680919587612152,
0.55500000000000005,-0.092652246356010437,
0.5575,-0.094960138201713562,
0.56000000000000005,-0.097268030047416687,
0.5625,-0.10094623267650604,
0.56499999999999995,-0.10195593535900116,
0.5675,-0.10243674367666245,
0.56999999999999995,-0.10250886529684067,
0.57250000000000001,-0.10224442183971405,
0.57499999999999996,-0.102292500436306,
0.57750000000000001,-0.10265310853719711,
0.57999999999999996,-0.10327816009521484,
0.58250000000000002,-0.10508120059967041,
0.58499999999999996,-0.10594666004180908,
0.58750000000000002,-0.10659575462341309,
0.58999999999999997,-0.10690828412771225,
0.59250000000000003,-0.1061149463057518,
0.59499999999999997,-0.10493695735931396,
0.59750000000000003,-0.10323008149862289,
0.59999999999999998,-0.10101835429668427,
0.60250000000000004,-0.095777511596679688,
0.60499999999999998,-0.093229219317436218,
0.60750000000000004,-0.091137692332267761,
0.60999999999999999,-0.089911624789237976,
0.61250000000000004,-0.09089728444814682,
0.61499999999999999,-0.093277297914028168,
0.61750000000000005,-0.096787214279174805,
0.62,-0.10099431127309799,
0.62250000000000005,-0.10996143519878387,
0.625,-0.11371175944805145,
0.62749999999999995,-0.11647641658782959,
0.63,-0.11806309223175049,
0.63249999999999995,-0.11712551116943359,
0.63500000000000001,-0.11472146213054657,
0.63749999999999996,-0.11125962436199188,
0.64000000000000001,-0.10693232715129852,
0.64249999999999996,-0.097099743783473969,
0.64500000000000002,-0.092363759875297546,
0.64749999999999996,-0.088348984718322754,
0.65000000000000002,-0.085416041314601898,
0.65249999999999997,-0.083709165453910828,
0.65500000000000003,-0.084935232996940613,
0.65749999999999997,-0.087219081819057465,
0.66000000000000003,-0.090007781982421875,
0.66249999999999998,-0.094960138201713562,
0.66500000000000004,-0.096090041100978851,
0.66749999999999998,-0.095969840884208679,
0.67000000000000004,-0.094575487077236176,
0.67249999999999999,-0.089046165347099304,
0.67500000000000004,-0.085776649415493011,
0.67749999999999999,-0.082819662988185883,
0.68000000000000005,-0.080463692545890808,
0.6825,-0.078276000916957855,
0.68500000000000005,-0.078251957893371582,
0.6875,-0.078516408801078796,
0.68999999999999995,-0.078684687614440918,
0.6925,-0.076737403869628906,
0.69499999999999995,-0.073876582086086273,
0.69750000000000001,-0.069525241851806641,
0.69999999999999996,-0.063755512237548828,
0.70250000000000001,-0.049547553062438965,
0.70499999999999996,-0.042359434068202972,
0.70750000000000002,-0.036132931709289551,
0.70999999999999996,-0.031685434281826019,
0.71250000000000002,-0.029930472373962402,
0.71499999999999997,-0.032935541123151779,
0.71750000000000003,-0.038176380097866058,
0.71999999999999997,-0.045051973313093185,
0.72250000000000003,-0.060894690454006195,
0.72499999999999998,-0.068539582192897797,
0.72750000000000004,-0.075391136109828949,
0.72999999999999998,-0.081401273608207703,
0.73250000000000004,-0.091354057192802429,
0.73499999999999999,-0.09584963321685791,
0.73750000000000004,-0.10041733831167221,
0.73999999999999999,-0.10510524362325668,
0.74250000000000005,-0.11452913284301758,
0.745,-0.11866410821676254,
0.74750000000000005,-0.12178938090801239,
0.75,-0.12356837838888168,
0.75249999999999995,-0.12135665118694305,
0.755,-0.11710147559642792,
0.75749999999999995,-0.11089901626110077,
0.76000000000000001,-0.10315795987844467,
0.76249999999999996,-0.086305543780326843,
0.76500000000000001,-0.079357825219631195,
0.76749999999999996,-0.075102649629116058,
0.77000000000000002,-0.074862241744995117,
0.77249999999999996,-0.089983746409416199,
0.77500000000000002,-0.10616302490234375,
0.77749999999999997,-0.12763123214244843,
0.78000000000000003,-0.15316228568553925,
0.78249999999999997,-0.20869593322277069,
0.78500000000000003,-0.23362597823143005,
0.78749999999999998,-0.25278627872467041,
0.79000000000000004,-0.26336413621902466,
0.79249999999999998,-0.24793009459972382,
0.79500000000000004,-0.21778325736522675,
0.79749999999999999,-0.17109653353691101,
0.80000000000000004,-0.10774970054626465,
0.80249999999999999,0.063178539276123047,
0.80500000000000005,0.16479790210723877,
0.8075,0.27112922072410583,
0.81000000000000005,0.37623447179794312,
0.8125,0.55699527263641357,
0.81499999999999995,0.61988532543182373,
0.8175,0.65736454725265503,
0.81999999999999995,0.66604316234588623,
0.82250000000000001,0.59344077110290527,
0.82499999999999996,0.51619851589202881,
0.82750000000000001,0.41787266731262207,
0.82999999999999996,0.30512255430221558,
0.83250000000000002,0.067385636270046234,
0.83499999999999996,-0.042407512664794922,
0.83750000000000002,-0.13758401572704315,
0.83999999999999997,-0.21367232501506805,
0.84250000000000003,-0.301372230052948,
0.84499999999999997,-0.31435412168502808,
0.84750000000000003,-0.31055569648742676,
0.84999999999999998,-0.29416006803512573,
0.85250000000000004,-0.24170359969139099,
0.85499999999999998,-0.21367232501506805,
0.85750000000000004,-0.18842975795269012,
0.85999999999999999,-0.16751448810100555,
0.86250000000000004,-0.1400601863861084,
0.86499999999999999,-0.13234317302703857,
0.86750000000000005,-0.12719850242137909,
0.87,-0.12356837838888168,
0.87250000000000005,-0.11714955419301987,
0.875,-0.11332710832357407,
0.87749999999999995,-0.10890364646911621,
0.88,-0.10392725467681885,
0.88249999999999995,-0.093517705798149109,
0.88500000000000001,-0.088709592819213867,
0.88749999999999996,-0.084478460252285004,
0.89000000000000001,-0.081112787127494812,
0.89249999999999996,-0.077001854777336121,
0.89500000000000002,-0.075944066047668457,
0.89749999999999996,-0.075246892869472504,
0.90000000000000002,-0.074405476450920105,
0.90249999999999997,-0.07106383889913559,
0.90500000000000003,-0.06815493106842041,
0.90749999999999997,-0.064428649842739105,
0.91000000000000003,-0.060221552848815918,
0.91249999999999998,-0.051951609551906586,
0.91500000000000004,-0.048778258264064789,
0.91749999999999998,-0.046710770577192307,
0.92000000000000004,-0.045773189514875412,
0.92249999999999999,-0.046638648957014084,
0.92500000000000004,-0.047672390937805176,
0.92749999999999999,-0.048417650163173676,
0.93000000000000005,-0.048465728759765625,
0.9325,-0.045124094933271408,
0.93500000000000005,-0.041518013924360275,
0.9375,-0.036782026290893555,
0.93999999999999995,-0.031204622238874435,
0.9425,-0.019280513748526573,
0.94499999999999995,-0.013967554084956646,
0.94750000000000001,-0.0096402568742632866,
0.94999999999999996,-0.0066832704469561577,
0.95250000000000001,-0.0051687164232134819,
0.95499999999999996,-0.0062505407258868217,
0.95750000000000002,-0.0080295410007238388,
0.95999999999999996,-0.0098806619644165039,
0.96250000000000002,-0.011635622009634972,
0.96499999999999997,-0.010722081176936626,
0.96750000000000003,-0.0083661079406738281,
0.96999999999999997,-0.0047119460068643093,
0.97250000000000003,0.0055533647537231445,
0.97499999999999998,0.011515418998897076,
0.97750000000000004,0.017645757645368576,
0.97999999999999998,0.023896297439932823,
0.98250000000000004,0.036541622132062912,
0.98499999999999999,0.043008528649806976,
0.98750000000000004,0.049643717706203461,
0.98999999999999999,0.056278906762599945,
0.99250000000000005,0.069140598177909851,
0.995,0.075030528008937836,
0.99750000000000005,0.080415606498718262,
1,0.085319876670837402,87.272727966308594
1.0024999999999999,0.093926392495632172,
1.0049999999999999,0.097893081605434418,
1.0075000000000001,0.10176360607147217,
1.01,0.10553797334432602,
1.0125,0.11267801374197006,
1.0149999999999999,0.11589944362640381,
1.0175000000000001,0.11883239448070526,
1.02,0.1215008944272995,
1.0225,0.12640516459941864,
1.0249999999999999,0.12885729968547821,
1.0275000000000001,0.13140559196472168,
1.03,0.13405005633831024,
1.0325,0.13909856975078583,
1.0349999999999999,0.14119009673595428,
1.0375000000000001,0.14268061518669128,
1.04,0.14347395300865173,
1.0425,0.14236807823181152,
1.0449999999999999,0.14027655124664307,
1.0475000000000001,0.13712725043296814,
1.05,0.13279995322227478,
1.0525,0.12080371379852295,
1.0549999999999999,0.11323094367980957,
1.0575000000000001,0.10479271411895752,
1.0600000000000001,0.095705389976501465,
1.0625,0.076376795768737793,
1.0649999999999999,0.066472098231315613,
1.0674999999999999,0.056543350219726562,
1.0700000000000001,0.046542488038539886,
1.0725,0.026108026504516602,
1.075,0.015602311119437218,
1.0774999999999999,0.0049523515626788139,
1.0800000000000001,-0.0057456893846392632,
1.0825,-0.026396512985229492,
1.085,-0.035940609872341156,
1.0874999999999999,-0.044763486832380295,
1.0900000000000001,-0.052865147590637207,
1.0925,-0.06707310676574707,
1.095,-0.073419809341430664,
1.0974999999999999,-0.079453989863395691,
1.1000000000000001,-0.085271798074245453,
1.1025,-0.096474692225456238,
1.105,-0.10202805697917938,
1.1074999999999999,-0.10755737870931625,
1.1100000000000001,-0.1131107434630394,
1.1125,-0.12404918670654297,
1.115,-0.12902557849884033,
1.1174999999999999,-0.13325671851634979,
1.1200000000000001,-0.13630986213684082,
1.1225000000000001,-0.13717532157897949,
1.125,-0.1345549076795578,
1.1274999999999999,-0.12991508841514587,
1.1299999999999999,-0.1237366646528244,
1.1325000000000001,-0.10933637619018555,
1.135,-0.10272523015737534,
1.1375,-0.097484394907951355,
1.1399999999999999,-0.094070635735988617,
1.1425000000000001,-0.093205176293849945,
1.145,-0.095320746302604675,
1.1475,-0.098494097590446472,
1.1499999999999999,-0.10214825719594955,
1.1525000000000001,-0.10887961089611053,
1.155,-0.11116345971822739,
1.1575,-0.11246164888143539,
1.1599999999999999,-0.11284630000591278,
1.1625000000000001,-0.11137982457876205,
1.165,-0.11015375703573227,
1.1675,-0.10902385413646698,
1.1699999999999999,-0.10827859491109848,
1.1725000000000001,-0.10868728160858154,
1.175,-0.10976910591125488,
1.1775,-0.11123558133840561,
1.1799999999999999,-0.11267801374197006,
1.1825000000000001,-0.11412044614553452,
1.1850000000000001,-0.11363963782787323,
1.1875,-0.11224528402090073,
1.1899999999999999,-0.11020183563232422,
1.1924999999999999,-0.10575433820486069,
1.1950000000000001,-0.10426382720470428,
1.1975,-0.1037830114364624,
1.2,-0.10440807044506073,
1.2024999999999999,-0.1084468811750412,
1.2050000000000001,-0.11106729507446289,
1.2075,-0.11327902972698212,
1.21,-0.1146012544631958,
1.2124999999999999,-0.11275013536214828,
1.2150000000000001,-0.10916809737682343,
1.2175,-0.10392725467681885,
1.22,-0.097388230264186859,
1.2224999999999999,-0.082627341151237488,
1.2250000000000001,-0.075775787234306335,
1.2275,-0.070222422480583191,
1.23,-0.066472098231315613,
1.2324999999999999,-0.065726839005947113,
1.2350000000000001,-0.068539582192897797,
1.2375,-0.072890922427177429,
1.24,-0.07813175767660141,
1.2424999999999999,-0.087916254997253418,
1.2450000000000001,-0.091185770928859711,
1.2475000000000001,-0.092772446572780609,
1.25,-0.092700324952602386,
1.2524999999999999,-0.088757678866386414,
1.2549999999999999,-0.085848771035671234,
1.2575000000000001,-0.083011984825134277,
1.26,-0.080680057406425476,
1.2625,-0.078348122537136078,
1.2649999999999999,-0.078396201133728027,
1.2675000000000001,-0.079069338738918304,
1.27,-0.080199241638183594,
1.2725,-0.083276435732841492,
1.2749999999999999,-0.084935232996940613,
1.2775000000000001,-0.086545944213867188,
1.28,-0.088060498237609863,
1.2825,-0.089406773447990417,
1.2849999999999999,-0.091498300433158875,
1.2875000000000001,-0.092291638255119324,
1.29,-0.092988811433315277,
1.2925,-0.09447932243347168,
1.2949999999999999,-0.095272660255432129,
1.2975000000000001,-0.096041962504386902,
1.3,-0.09659489244222641,
1.3025,-0.096138119697570801,
1.3049999999999999,-0.094815894961357117,
1.3075000000000001,-0.092700324952602386,
1.3100000000000001,-0.089935660362243652,
1.3125,-0.083613000810146332,
1.3149999999999999,-0.080752179026603699,
1.3174999999999999,-0.078516408801078796,
1.3200000000000001,-0.077122054994106293,
1.3225,-0.076833568513393402,
1.325,-0.077747106552124023,
1.3274999999999999,-0.079045295715332031,
1.3300000000000001,-0.080487728118896484,
1.3325,-0.083132192492485046,
1.335,-0.083997651934623718,
1.3374999999999999,-0.084430381655693054,
1.3400000000000001,-0.084382295608520508,
1.3425,-0.082651376724243164,
1.345,-0.081136822700500488,
1.3474999999999999,-0.079381868243217468,
1.3500000000000001,-0.077554784715175629,
1.3525,-0.074982449412345886,
1.355,-0.07454971969127655,
1.3574999999999999,-0.074790120124816895,
1.3600000000000001,-0.075559422373771667,
1.3625,-0.077530741691589355,
1.365,-0.07808367908000946,
1.3674999999999999,-0.077987514436244965,
1.3700000000000001,-0.07704993337392807,
1.3725000000000001,-0.073155365884304047,
1.375,-0.070558987557888031,
1.3774999999999999,-0.067914530634880066,
1.3799999999999999,-0.065510474145412445,
1.3825000000000001,-0.063442990183830261,
1.385,-0.060630243271589279,
1.3875,-0.059788823127746582,
1.3899999999999999,-0.059235893189907074,
1.3925000000000001,-0.058658920228481293,
1.395,-0.058514676988124847,
1.3975,-0.058442555367946625,
1.3999999999999999,-0.058418512344360352,
1.4025000000000001,-0.058370433747768402,
1.405,-0.058346390724182129,
1.4075,-0.058322351425886154,
1.4099999999999999,-0.058322351425886154,
1.4125000000000001,-0.058658920228481293,
1.415,-0.058875285089015961,
1.4175,-0.059019528329372406,
1.4199999999999999,-0.058851242065429688,
1.4225000000000001,-0.05659143254160881,
1.425,-0.054067175835371017,
1.4275,-0.050461094826459885,
1.4299999999999999,-0.045797228813171387,
1.4325000000000001,-0.034618377685546875,
1.4350000000000001,-0.028824608772993088,
1.4375,-0.023487608879804611,
1.4399999999999999,-0.019088190048933029,
1.4424999999999999,-0.014328162185847759,
1.4450000000000001,-0.014496445655822754,
1.4475,-0.016515851020812988,
1.45,-0.020410418510437012,
1.4524999999999999,-0.033440392464399338,
1.4550000000000001,-0.041998825967311859,
1.4575,-0.051302514970302582,
1.46,-0.060798525810241699,
1.4624999999999999,-0.077699027955532074,
1.4650000000000001,-0.084021687507629395,
1.4675,-0.088493227958679199,
1.47,-0.091017484664916992,
1.4724999999999999,-0.091161727905273438,
1.4750000000000001,-0.08947889506816864,
1.4775,-0.087098881602287292,
1.48,-0.084382295608520508,
1.4824999999999999,-0.078251957893371582,
1.4850000000000001,-0.075006484985351562,
1.4875,-0.07168889045715332,
1.49,-0.068611703813076019,
1.4924999999999999,-0.065246030688285828,
1.4950000000000001,-0.066351890563964844,
1.4975000000000001,-0.070390701293945312,
1.5,-0.078059636056423187,
1.5024999999999999,-0.1052735298871994,
1.5049999999999999,-0.12436171621084213,
1.5075000000000001,-0.14585396647453308,
1.51,-0.1682116687297821,
1.5125,-0.20737370848655701,
1.5149999999999999,-0.21927377581596375,
1.5175000000000001,-0.22259137034416199,
1.52,-0.21494647860527039,
1.5225,-0.15900413691997528,
1.5249999999999999,-0.10856708139181137,
1.5275000000000001,-0.043248932808637619,
1.53,0.03555595874786377,
1.5325,0.22213459014892578,
1.5349999999999999,0.32149416208267212,
1.5375000000000001,0.41794478893280029,
1.54,0.50559663772583008,
1.5425,0.63180947303771973,
1.5449999999999999,0.66065812110900879,
1.5475000000000001,0.66224479675292969,
1.55,0.63551169633865356,
1.5525,0.50263965129852295,
1.5549999999999999,0.40448209643363953,
1.5575000000000001,0.29334267973899841,
1.5600000000000001,0.17664989829063416,
1.5625,-0.042936407029628754,
1.5649999999999999,-0.13272783160209656,
1.5674999999999999,-0.20302236080169678,
1.5700000000000001,-0.25182467699050903,
1.5725,-0.28752487897872925,
1.575,-0.28000018000602722,
1.5774999999999999,-0.26120048761367798,
1.5800000000000001,-0.23576557636260986,
1.5825,-0.18112143874168396,
1.585,-0.15782615542411804,
1.5874999999999999,-0.13926684856414795,
1.5900000000000001,-0.12561182677745819,
1.5925,-0.11049032211303711,
1.595,-0.10657171905040741,
1.5974999999999999,-0.10337432473897934,
1.6000000000000001,-0.099864408373832703,
1.6025,-0.089406773447990417,
1.605,-0.082338854670524597,
1.6074999999999999,-0.074429512023925781,
1.6100000000000001,-0.066279768943786621,
1.6125,-0.051903527230024338,
1.615,-0.046614609658718109,
1.6174999999999999,-0.042864285409450531,
1.6200000000000001,-0.040604472160339355,
1.6225000000000001,-0.03892163559794426,
1.625,-0.038585066795349121,
1.6274999999999999,-0.03800809383392334,
1.6299999999999999,-0.03692626953125,
1.6325000000000001,-0.033464431762695312,
1.635,-0.031348865479230881,
1.6375,-0.029353499412536621,
1.6399999999999999,-0.027646621689200401,
1.6425000000000001,-0.025146406143903732,
1.645,-0.024088621139526367,
1.6475,-0.022862553596496582,
1.6499999999999999,-0.021179717034101486,
1.6525000000000001,-0.015962919220328331,
1.655,-0.012332797050476074,
1.6575,-0.0081497430801391602,
1.6599999999999999,-0.0036301217041909695,
1.6625000000000001,0.0057216486893594265,
1.665,0.010121067985892296,
1.6675,0.014111797325313091,
1.6699999999999999,0.017573636025190353,
1.6725000000000001,0.022646188735961914,
1.675,0.024377107620239258,
1.6775,0.025747418403625488,
1.6799999999999999,0.026997527107596397,
1.6825000000000001,0.030291080474853516,
1.6850000000000001,0.032719176262617111,
1.6875,0.03584444522857666,
1.6899999999999999,0.039570730179548264,
1.6924999999999999,0.047672390937805176,
1.6950000000000001,0.05151887983083725,
1.6975,0.054812431335449219,
1.7,0.057480931282043457,
1.7024999999999999,0.061279337853193283,
1.7050000000000001,0.062890052795410156,
1.7075,0.064765214920043945,
1.71,0.067193314433097839,
1.7124999999999999,0.074213147163391113,
1.7150000000000001,0.078852973878383636,
1.7175,0.084141895174980164,
1.72,0.08986353874206543,
1.7224999999999999,0.10234057903289795,
1.7250000000000001,0.10892768949270248,
1.7275,0.11573116481304169,
1.73,0.12277504056692123,
1.7324999999999999,0.13729552924633026,
1.7350000000000001,0.14470002055168152,
1.7375,0.15210449695587158,
1.74,0.15936474502086639,
1.7424999999999999,0.1730678528547287,
1.7450000000000001,0.17919819056987762,
1.7475000000000001,0.18465539813041687,
1.75,0.1891990602016449,
1.7524999999999999,0.19465625286102295,
1.7549999999999999,0.19532939791679382,
1.7575000000000001,0.19463221728801727,
1.76,0.19270896911621094,
1.7625,0.18660268187522888,
1.7649999999999999,0.18316487967967987,
1.7675000000000001,0.17989537119865417,
1.77,0.1769864559173584,
1.7725,0.17184178531169891,
1.7749999999999999,0.16917328536510468,
1.7775000000000001,0.1659758985042572,
1.78,0.16188900172710419,
1.7825,0.15049378573894501,
1.7849999999999999,0.14306525886058807,
1.7875000000000001,0.1345549076795578,
1.79,0.12513101100921631,
1.7925,0.10395129770040512,
1.7949999999999999,0.092459917068481445,
1.7975000000000001,0.080535814166069031,
1.8,0.068347260355949402,
1.8025,0.044162474572658539,
1.8049999999999999,0.032719176262617111,
1.8075000000000001,0.022069215774536133,
1.8100000000000001,0.01245300006121397,
1.8125,-0.0035099189262837172,
1.8149999999999999,-0.0099287433549761772,
1.8174999999999999,-0.015530189499258995,
1.8200000000000001,-0.020530622452497482,
1.8225,-0.029425621032714844,
1.825,-0.033656757324934006,
1.8274999999999999,-0.037935972213745117,
1.8300000000000001,-0.042311351746320724,
1.8325,-0.051542919129133224,
1.835,-0.05630294606089592,
1.8374999999999999,-0.061014890670776367,
1.8400000000000001,-0.065438352525234222,
1.8425,-0.072386071085929871,
1.845,-0.074453555047512054,
1.8474999999999999,-0.075463257730007172,
1.8500000000000001,-0.075415179133415222,
1.8525,-0.073203444480895996,
1.855,-0.07168889045715332,
1.8574999999999999,-0.07031857967376709,
1.8600000000000001,-0.069332920014858246,
1.8625,-0.06856362521648407,
1.865,-0.068515539169311523,
1.8674999999999999,-0.068467460572719574,
1.8700000000000001,-0.068227052688598633,
1.8725000000000001,-0.067289471626281738,
1.875,-0.066880784928798676,
1.8774999999999999,-0.066880784928798676,
1.8799999999999999,-0.067577958106994629,
1.8825000000000001,-0.07168889045715332,
1.885,-0.075030528008937836,
1.8875,-0.078973174095153809,
1.8899999999999999,-0.083036027848720551,
1.8925000000000001,-0.089695259928703308,
1.895,-0.091330014169216156,
1.8975,-0.091354057192802429,
1.8999999999999999,-0.089623138308525085,
1.9025000000000001,-0.081305108964443207,
1.905,-0.075487300753593445,
1.9075,-0.069356963038444519,
1.9099999999999999,-0.063635312020778656,
1.9125000000000001,-0.056182742118835449,
1.915,-0.055269204080104828,
1.9175,-0.05630294606089592,
1.9199999999999999,-0.058899324387311935,
1.9225000000000001,-0.065943203866481781,
1.925,-0.068731904029846191,
1.9275,-0.070102214813232422,
1.9299999999999999,-0.069669485092163086,
1.9325000000000001,-0.063779555261135101,
1.9350000000000001,-0.059259932488203049,
1.9375,-0.054596066474914551,
1.9399999999999999,-0.050533216446638107,
1.9424999999999999,-0.046133797615766525,
1.9450000000000001,-0.046229958534240723,
1.9475,-0.047744512557983398,
1.95,-0.050364933907985687,
1.9524999999999999,-0.057408809661865234,
1.9550000000000001,-0.061111055314540863,
1.9575,-0.064476728439331055,
1.96,-0.067241393029689789,
1.9624999999999999,-0.070102214813232422,
1.9650000000000001,-0.069861814379692078,
1.9675,-0.068395338952541351,
1.97,-0.065750882029533386,
1.9724999999999999,-0.057817500084638596,
1.9750000000000001,-0.053177677094936371,
1.9775,-0.048634015023708344,
1.98,-0.044523082673549652,
1.9824999999999999,-0.03875335305929184,
1.9850000000000001,-0.037262838333845139,
1.9875,-0.036709904670715332,
1.99,-0.036950312554836273,
1.9924999999999999,-0.039186082780361176,
1.9950000000000001,-0.040892958641052246,
1.9975000000000001,-0.042768120765686035,
2,-0.044667325913906097,86.597938537597656
2.0024999999999999,-0.047816634178161621,
2.0049999999999999,-0.048754215240478516,
2.0074999999999998,-0.049138866364955902,
2.0099999999999998,-0.048898458480834961,
2.0125000000000002,-0.046975217759609222,
2.0150000000000001,-0.045604906976222992,
2.0175000000000001,-0.044186513870954514,
2.02,-0.04291236400604248,
2.0225,-0.041253566741943359,
2.0249999999999999,-0.040989123284816742,
2.0274999999999999,-0.041253566741943359,
2.0299999999999998,-0.042094986885786057,
2.0325000000000002,-0.046037636697292328,
2.0350000000000001,-0.049283109605312347,
2.0375000000000001,-0.053273838013410568,
2.04,-0.057817500084638596,
2.0425,-0.066952906548976898,
2.0449999999999999,-0.070534944534301758,
2.0474999999999999,-0.072794757783412933,
2.0499999999999998,-0.073395773768424988,
2.0525000000000002,-0.069453120231628418,
2.0550000000000002,-0.065342187881469727,
2.0575000000000001,-0.060293674468994141,
2.0600000000000001,-0.054836474359035492,
2.0625,-0.044234596192836761,
2.0649999999999999,-0.039618812501430511,
2.0674999999999999,-0.035604041069746017,
2.0699999999999998,-0.032190285623073578,
2.0724999999999998,-0.027117729187011719,
2.0750000000000002,-0.025458931922912598,
2.0775000000000001,-0.024401148781180382,
2.0800000000000001,-0.024016499519348145,
2.0825,-0.025482973083853722,
2.085,-0.027286013588309288,
2.0874999999999999,-0.029714107513427734,
2.0899999999999999,-0.032695136964321136,
2.0924999999999998,-0.039690934121608734,
2.0950000000000002,-0.04336913675069809,
2.0975000000000001,-0.046782892197370529,
2.1000000000000001,-0.049667757004499435,
2.1025,-0.052672825753688812,
2.105,-0.052240096032619476,
2.1074999999999999,-0.050364933907985687,
2.1099999999999999,-0.047119460999965668,
2.1124999999999998,-0.037599407136440277,
2.1150000000000002,-0.032262407243251801,
2.1175000000000002,-0.027141770347952843,
2.1200000000000001,-0.022694271057844162,
2.1225000000000001,-0.016948580741882324,
2.125,-0.015794634819030762,
2.1274999999999999,-0.015770595520734787,
2.1299999999999999,-0.016732215881347656,
2.1324999999999998,-0.021011432632803917,
2.1349999999999998,-0.024016499519348145,
2.1375000000000002,-0.027213891968131065,
2.1400000000000001,-0.03031512163579464,
2.1425000000000001,-0.034498177468776703,
2.145,-0.034522216767072678,
2.1475,-0.032598972320556641,
2.1499999999999999,-0.028512081131339073,
2.1524999999999999,-0.013943513855338097,
2.1549999999999998,-0.004351337905973196,
2.1575000000000002,0.0059620542451739311,
2.1600000000000001,0.016155242919921875,
2.1625000000000001,0.033248066902160645,
2.165,0.03904183954000473,
2.1675,0.042527716606855392,
2.1699999999999999,0.04365762323141098,
2.1724999999999999,0.03937840461730957,
2.1749999999999998,0.034450095146894455,
2.1775000000000002,0.028175514191389084,
2.1800000000000002,0.020963352173566818,
2.1825000000000001,0.0053850812837481499,
2.1850000000000001,-0.0021396081428974867,
2.1875,-0.0090632839128375053,
2.1899999999999999,-0.015169581398367882,
2.1924999999999999,-0.024737715721130371,
2.1949999999999998,-0.028391879051923752,
2.1974999999999998,-0.031445026397705078,
2.2000000000000002,-0.03413756936788559,
2.2025000000000001,-0.038873553276062012,
2.2050000000000001,-0.040989123284816742,
2.2075,-0.042936407029628754,
2.21,-0.044571161270141602,
2.2124999999999999,-0.046566527336835861,
2.2149999999999999,-0.046758852899074554,
2.2174999999999998,-0.046302080154418945,
2.2200000000000002,-0.045220255851745605,
2.2225000000000001,-0.041878622025251389,
2.2250000000000001,-0.040315985679626465,
2.2275,-0.039642851799726486,
2.23,-0.040724676102399826,
2.2324999999999999,-0.051639080047607422,
2.2349999999999999,-0.062986217439174652,
2.2374999999999998,-0.078564487397670746,
2.2400000000000002,-0.097917124629020691,
2.2425000000000002,-0.14222383499145508,
2.2450000000000001,-0.16253809630870819,
2.2475000000000001,-0.1777317225933075,
2.25,-0.1844390332698822,
2.2524999999999999,-0.16049465537071228,
2.2549999999999999,-0.12527525424957275,
2.2574999999999998,-0.073011122643947601,
2.2599999999999998,-0.0040147705003619194,
2.2625000000000002,0.17648160457611084,
2.2650000000000001,0.28081756830215454,
2.2675000000000001,0.38777393102645874,
2.27,0.49117228388786316,
2.2725,0.66087448596954346,
2.2749999999999999,0.71472525596618652,
2.2774999999999999,0.74138623476028442,
2.2799999999999998,0.73792439699172974,
2.2825000000000002,0.64053618907928467,
2.2850000000000001,0.5523073673248291,
2.2875000000000001,0.44494232535362244,
2.29,0.32579740881919861,
2.2925,0.083949565887451172,
2.2949999999999999,-0.023872256278991699,
2.2974999999999999,-0.11496186256408691,
2.2999999999999998,-0.18568913638591766,
2.3025000000000002,-0.26148897409439087,
2.3050000000000002,-0.26906174421310425,
2.3075000000000001,-0.2606235146522522,
2.3100000000000001,-0.24040541052818298,
2.3125,-0.18251578509807587,
2.3149999999999999,-0.15268146991729736,
2.3174999999999999,-0.12594839930534363,
2.3199999999999998,-0.1038791760802269,
2.3224999999999998,-0.074742041528224945,
2.3250000000000002,-0.066279768943786621,
2.3275000000000001,-0.060413878411054611,
2.3300000000000001,-0.055894255638122559,
2.3325,-0.047624312341213226,
2.335,-0.043128728866577148,
2.3374999999999999,-0.038392744958400726,
2.3399999999999999,-0.03368079662322998,
2.3424999999999998,-0.025579135864973068,
2.3450000000000002,-0.02245386503636837,
2.3475000000000001,-0.019953649491071701,
2.3500000000000001,-0.017910202965140343,
2.3525,-0.014400283806025982,
2.355,-0.012717446312308311,
2.3574999999999999,-0.011010567657649517,
2.3599999999999999,-0.009351770393550396,
2.3624999999999998,-0.0064188241958618164,
2.3650000000000002,-0.0051927566528320312,
2.3675000000000002,-0.0041349730454385281,
2.3700000000000001,-0.0032214324455708265,
2.3725000000000001,-0.0013703107833862305,
2.375,-0.00036060810089111328,
2.3774999999999999,0.00079333782196044922,
2.3799999999999999,0.0021876893006265163,
2.3824999999999998,0.0058418512344360352,
2.3849999999999998,0.0082459058612585068,
2.3875000000000002,0.010986527428030968,
2.3900000000000001,0.013943513855338097,
2.3925000000000001,0.019785365089774132,
2.395,0.022093256935477257,
2.3975,0.023752054199576378,
2.3999999999999999,0.024641554802656174,
2.4024999999999999,0.024689635261893272,
2.4049999999999998,0.024545392021536827,
2.4075000000000002,0.024833878502249718,
2.4100000000000001,0.026035904884338379,
2.4125000000000001,0.032190285623073578,
2.415,0.037190716713666916,
2.4175,0.043272972106933594,
2.4199999999999999,0.050052404403686523,
2.4224999999999999,0.064116120338439941,
2.4249999999999998,0.070751309394836426,
2.4275000000000002,0.076761446893215179,
2.4300000000000002,0.08200228214263916,
2.4325000000000001,0.089983746409416199,
2.4350000000000001,0.092628203332424164,
2.4375,0.094551444053649902,
2.4399999999999999,0.095873676240444183,
2.4424999999999999,0.097580552101135254,
2.4449999999999998,0.098686419427394867,
2.4474999999999998,0.10032117366790771,
2.4500000000000002,0.10277330875396729,
2.4525000000000001,0.11073072999715805,
2.4550000000000001,0.11606772989034653,
2.4575,0.1221499890089035,
2.46,0.12868902087211609,
2.4624999999999999,0.14232000708580017,
2.4649999999999999,0.14914751052856445,
2.4674999999999998,0.15578269958496094,
2.4700000000000002,0.16217748820781708,
2.4725000000000001,0.17412564158439636,
2.4750000000000001,0.17943859100341797,
2.4775,0.18422266840934753,
2.48,0.1884537935256958,
2.4824999999999999,0.1952572762966156,
2.4849999999999999,0.19809405505657196,
2.4874999999999998,0.20071446895599365,
2.4900000000000002,0.20319065451622009,
2.4925000000000002,0.20783047378063202,
2.4950000000000001,0.20958542823791504,
2.4975000000000001,0.21069130301475525,
2.5,0.21088361740112305,
2.5024999999999999,0.20768623054027557,
2.5049999999999999,0.20422439277172089,
2.5074999999999998,0.19958457350730896,
2.5099999999999998,0.19391100108623505,
2.5125000000000002,0.18025597929954529,
2.5150000000000001,0.17249087989330292,
2.5175000000000001,0.16424497961997986,
2.52,0.15556633472442627,
2.5225,0.13691088557243347,
2.5249999999999999,0.1270061731338501,
2.5274999999999999,0.11666874587535858,
2.5299999999999998,0.10587453842163086,
2.5325000000000002,0.082579255104064941,
2.5350000000000001,0.069837771356105804,
2.5375000000000001,0.056351028382778168,
2.54,0.042263269424438477,
2.5425,0.013342499732971191,
2.5449999999999999,-0.00045677027083002031,
2.5474999999999999,-0.013054013252258301,
2.5499999999999998,-0.023848216980695724,
2.5525000000000002,-0.038657188415527344,
2.5550000000000002,-0.042479634284973145,
2.5575000000000001,-0.044138431549072266,
2.5600000000000001,-0.044066309928894043,
2.5625,-0.040676593780517578,
2.5649999999999999,-0.038368701934814453,
2.5674999999999999,-0.036181014031171799,
2.5699999999999998,-0.03447413444519043,
2.5724999999999998,-0.033103823661804199,
2.5750000000000002,-0.033656757324934006,
2.5775000000000001,-0.034978985786437988,
2.5800000000000001,-0.036878190934658051,
2.5825,-0.041638217866420746,
2.585,-0.043898027390241623,
2.5874999999999999,-0.045701067894697189,
2.5899999999999999,-0.046927135437726974,
2.5924999999999998,-0.047624312341213226,
2.5950000000000002,-0.04752814769744873,
2.5975000000000001,-0.047456026077270508,
2.6000000000000001,-0.047768555581569672,
2.6025,-0.050124526023864746,
2.605,-0.05214393138885498,
2.6074999999999999,-0.054475866258144379,
2.6099999999999999,-0.056903958320617676,
2.6124999999999998,-0.060798525810241699,
2.6150000000000002,-0.062024593353271484,
2.6175000000000002,-0.062649652361869812,
2.6200000000000001,-0.062793895602226257,
2.6225000000000001,-0.062265001237392426,
2.625,-0.061880350112915039,
2.6274999999999999,-0.061543785035610199,
2.6299999999999999,-0.061399541795253754,
2.6324999999999998,-0.061543785035610199,
2.6349999999999998,-0.06183227151632309,
2.6375000000000002,-0.06212075799703598,
2.6400000000000001,-0.062240958213806152,
2.6425000000000001,-0.061159133911132812,
2.645,-0.059524379670619965,
2.6475,-0.056952040642499924,
2.6499999999999999,-0.053538285195827484,
2.6524999999999999,-0.044811569154262543,
2.6549999999999998,-0.040315985679626465,
2.6575000000000002,-0.036277174949645996,
2.6600000000000001,-0.03305574506521225,
2.6625000000000001,-0.029810270294547081,
2.665,-0.029617946594953537,
2.6675,-0.02997855469584465,
2.6699999999999999,-0.03060360811650753,
2.6724999999999999,-0.031396947801113129,
2.6749999999999998,-0.031396947801113129,
2.6775000000000002,-0.031276743859052658,
2.6800000000000002,-0.031180581077933311,
2.6825000000000001,-0.03214220330119133,
2.6850000000000001,-0.033416353166103363,
2.6875,-0.035219393670558929,
2.6899999999999999,-0.037431120872497559,
2.6924999999999999,-0.042167108505964279,
2.6949999999999998,-0.044354796409606934,
2.6974999999999998,-0.046229958534240723,
2.7000000000000002,-0.047672390937805176,
2.7025000000000001,-0.049162905663251877,
2.7050000000000001,-0.049162905663251877,
2.7075,-0.048658054322004318,
2.71,-0.047744512557983398,
2.7124999999999999,-0.045027934014797211,
2.7149999999999999,-0.04365762323141098,
2.7174999999999998,-0.042479634284973145,
2.7200000000000002,-0.041638217866420746,
2.7225000000000001,-0.041229527443647385,
2.7250000000000001,-0.04137377068400383,
2.7275,-0.041469931602478027,
2.73,-0.041277609765529633,
2.7324999999999999,-0.039258204400539398,
2.7349999999999999,-0.037431120872497559,
2.7374999999999998,-0.035243432968854904,
2.7400000000000002,-0.032959580421447754,
2.7425000000000002,-0.029401581734418869,
2.7450000000000001,-0.028560161590576172,
2.7475000000000001,-0.028488039970397949,
2.75,-0.029185216873884201,
2.7524999999999999,-0.03231048583984375,
2.7549999999999999,-0.034353934228420258,
2.7574999999999998,-0.036421418190002441,
2.7599999999999998,-0.038272541016340256,
2.7625000000000002,-0.040532350540161133,
2.7650000000000001,-0.040676593780517578,
2.7675000000000001,-0.04012366384267807,
2.77,-0.038993757218122482,
2.7725,-0.035940609872341156,
2.7749999999999999,-0.034738581627607346,
2.7774999999999999,-0.034209690988063812,
2.7799999999999998,-0.034522216767072678,
2.7825000000000002,-0.037647485733032227,
2.7850000000000001,-0.039859216660261154,
2.7875000000000001,-0.041902661323547363,
2.79,-0.043248932808637619,
2.7925,-0.04228731244802475,
2.7949999999999999,-0.039763055741786957,
2.7974999999999999,-0.036132931709289551,
2.7999999999999998,-0.031805634498596191,
2.8025000000000002,-0.023343365639448166,
2.8050000000000002,-0.020218094810843468,
2.8075000000000001,-0.018342932686209679,
2.8100000000000001,-0.017862122505903244,
2.8125,-0.020722946152091026,
2.8149999999999999,-0.023631852120161057,
2.8174999999999999,-0.027021568268537521,
2.8199999999999998,-0.030435323715209961,
2.8224999999999998,-0.035748284310102463,
2.8250000000000002,-0.036950312554836273,
2.8275000000000001,-0.036902230232954025,
2.8300000000000001,-0.035700201988220215,
2.8325,-0.030651688575744629,
2.835,-0.0276947021484375,
2.8374999999999999,-0.025146406143903732,
2.8399999999999999,-0.023415487259626389,
2.8424999999999998,-0.023367404937744141,
2.8450000000000002,-0.024954080581665039,
2.8475000000000001,-0.027165811508893967,
2.8500000000000001,-0.029617946594953537,
2.8525,-0.033272109925746918,
2.855,-0.033873122185468674,
2.8574999999999999,-0.033488474786281586,
2.8599999999999999,-0.032190285623073578,
2.8624999999999998,-0.0276947021484375,
2.8650000000000002,-0.024930041283369064,
2.8675000000000002,-0.022069215774536133,
2.8700000000000001,-0.019280513748526573,
2.8725000000000001,-0.014087757095694542,
2.875,-0.011779865249991417,
2.8774999999999999,-0.0096883382648229599,
2.8799999999999999,-0.0078372163698077202,
2.8824999999999998,-0.0049763917922973633,
2.8849999999999998,-0.0039666891098022461,
2.8875000000000002,-0.0032695136032998562,
2.8900000000000001,-0.0029810271225869656,
2.8925000000000001,-0.0038705270271748304,
2.895,-0.0052408380433917046,
2.8975,-0.0072121620178222656,
2.8999999999999999,-0.0096402568742632866,
2.9024999999999999,-0.014544527046382427,
2.9049999999999998,-0.015914838761091232,
2.9075000000000002,-0.015794634819030762,
2.9100000000000001,-0.013703107833862305,
2.9125000000000001,-0.0028127431869506836,
2.915,0.0055052838288247585,
2.9175,0.014857053756713867,
2.9199999999999999,0.024425189942121506,
2.9224999999999999,0.040027499198913574,
2.9249999999999998,0.044450961053371429,
2.9275000000000002,0.045941472053527832,
2.9300000000000002,0.044402878731489182,
2.9325000000000001,0.033272109925746918,
2.9350000000000001,0.024737715721130371,
2.9375,0.015145540237426758,
2.9399999999999999,0.0052648782730102539,
2.9424999999999999,-0.012789567932486534,
2.9449999999999998,-0.019929608330130577,
2.9474999999999998,-0.025410851463675499,
2.9500000000000002,-0.029161175712943077,
2.9525000000000001,-0.032286446541547775,
2.9550000000000001,-0.032430689781904221,
2.9575,-0.032286446541547775,
2.96,-0.032286446541547775,
2.9624999999999999,-0.033632718026638031,
2.9649999999999999,-0.034954946488142014,
2.9674999999999998,-0.036301217973232269,
2.9700000000000002,-0.037286877632141113,
2.9725000000000001,-0.03675798699259758,
2.9750000000000001,-0.034978985786437988,
2.9775,-0.032550893723964691,
2.98,-0.030002593994140625,
2.9824999999999999,-0.028199553489685059,
2.9849999999999999,-0.030988257378339767,
2.9874999999999998,-0.037383042275905609,
2.9900000000000002,-0.048032999038696289,
2.9925000000000002,-0.082122489809989929,
2.9950000000000001,-0.10426382720470428,
2.9975000000000001,-0.12794375419616699,
3,-0.15085439383983612,85.365852355957031
3.0024999999999999,-0.18340528011322021,
3.0049999999999999,-0.18679499626159668,
3.0074999999999998,-0.1775393933057785,
3.0099999999999998,-0.15318632125854492,
3.0125000000000002,-0.053634446114301682,
3.0150000000000001,0.021396081894636154,
3.0175000000000001,0.11085093021392822,
3.02,0.21126827597618103,
3.0225,0.42508482933044434,
3.0249999999999999,0.52646380662918091,
3.0274999999999999,0.61560612916946411,
3.0299999999999998,0.68628531694412231,
3.0325000000000002,0.75249296426773071,
3.0350000000000001,0.74189108610153198,
3.0375000000000001,0.70135873556137085,
3.04,0.63310766220092773,
3.0425,0.43260952830314636,
3.0449999999999999,0.31392139196395874,
3.0474999999999999,0.19345423579216003,
3.0499999999999998,0.078852973878383636,
3.0525000000000002,-0.10746121406555176,
3.0550000000000002,-0.17109653353691101,
3.0575000000000001,-0.21323959529399872,
3.0600000000000001,-0.23502032458782196,
3.0625,-0.22968332469463348,
3.0649999999999999,-0.21069130301475525,
3.0674999999999999,-0.18633823096752167,
3.0699999999999998,-0.16030232608318329,
3.0724999999999998,-0.11306266486644745,
3.0750000000000002,-0.094527408480644226,
3.0775000000000001,-0.079862676560878754,
3.0800000000000001,-0.068611703813076019,
3.0825,-0.053658485412597656,
3.085,-0.048417650163173676,
3.0874999999999999,-0.043849945068359375,
3.0899999999999999,-0.039618812501430511,
3.0924999999999998,-0.031589269638061523,
3.0950000000000002,-0.027838945388793945,
3.0975000000000001,-0.024473270401358604,
3.1000000000000001,-0.021492242813110352,
3.1025,-0.016732215881347656,
3.105,-0.014712810516357422,
3.1074999999999999,-0.012717446312308311,
3.1099999999999999,-0.01060187816619873,
3.1124999999999998,-0.0059139728546142578,
3.1150000000000002,-0.0034618377685546875,
3.1175000000000002,-0.0012020270805805922,
3.1200000000000001,0.0007692973013035953,
3.1225000000000001,0.0035820405464619398,
3.125,0.00461578369140625,
3.1274999999999999,0.0056976079940795898,
3.1299999999999999,0.0070679187774658203,
3.1324999999999998,0.011299054138362408,
3.1349999999999998,0.014135837554931641,
3.1375000000000002,0.017140906304121017,
3.1400000000000001,0.020073851570487022,
3.1425000000000001,0.024521350860595703,
3.145,0.025675296783447266,
3.1475,0.026252269744873047,
3.1499999999999999,0.026396512985229492,
3.1524999999999999,0.026853283867239952,
3.1549999999999998,0.027718743309378624,
3.1575000000000002,0.0292332973331213,
3.1600000000000001,0.031445026397705078,
3.1625000000000001,0.037431120872497559,
3.165,0.040844880044460297,
3.1675,0.044330757111310959,
3.1699999999999999,0.047672390937805176,
3.1724999999999999,0.053586363792419434,
3.1749999999999998,0.056038498878479004,
3.1775000000000002,0.058081947267055511,
3.1800000000000002,0.059788823127746582,
3.1825000000000001,0.062673687934875488,
3.1850000000000001,0.064164206385612488,
3.1875,0.0661114901304245,
3.1899999999999999,0.068635746836662292,
3.1924999999999999,0.076232552528381348,
3.1949999999999998,0.081353187561035156,
3.1974999999999998,0.087171003222465515,
3.2000000000000002,0.093541741371154785,
3.2025000000000001,0.10712464898824692,
3.2050000000000001,0.11402428150177002,
3.2075,0.12094795703887939,
3.21,0.12791971862316132,
3.2124999999999999,0.14193534851074219,
3.2149999999999999,0.14897923171520233,
3.2174999999999998,0.15585482120513916,
3.2200000000000002,0.16244193911552429,
3.2225000000000001,0.17426988482475281,
3.2250000000000001,0.17931839823722839,
3.2275,0.18386206030845642,
3.23,0.18790087103843689,
3.2324999999999999,0.19496878981590271,
3.2349999999999999,0.19811809062957764,
3.2374999999999998,0.20095488429069519,
3.2400000000000002,0.20350317656993866,
3.2425000000000002,0.20773431658744812,
3.2450000000000001,0.20946523547172546,
3.2475000000000001,0.21112403273582458,
3.25,0.21283090114593506,
3.2524999999999999,0.21638891100883484,
3.2549999999999999,0.21809577941894531,
3.2574999999999998,0.21934589743614197,
3.2599999999999998,0.21982669830322266,
3.2625000000000002,0.21686971187591553,
3.2650000000000001,0.21280686557292938,
3.2675000000000001,0.2069169282913208,
3.27,0.19924800097942352,
3.2725,0.17929434776306152,
3.2749999999999999,0.16768276691436768,
3.2774999999999999,0.15530189871788025,
3.2799999999999998,0.14248828589916229,
3.2825000000000002,0.11662065982818604,
3.2850000000000001,0.10392725467681885,
3.2875000000000001,0.091690622270107269,
3.29,0.079982876777648926,
3.2925,0.058394473046064377,
3.2949999999999999,0.04844168946146965,
3.2974999999999999,0.038825474679470062,
3.2999999999999998,0.029545824974775314,
3.3025000000000002,0.011731783859431744,
3.3050000000000002,0.0033897161483764648,
3.3075000000000001,-0.0042792162857949734,
3.3100000000000001,-0.011034607887268066,
3.3125,-0.021179717034101486,
3.3149999999999999,-0.024497311562299728,
3.3174999999999999,-0.026949446648359299,
3.3199999999999998,-0.028872689232230186,
3.3224999999999998,-0.032598972320556641,
3.3250000000000002,-0.035051107406616211,
3.3275000000000001,-0.038080215454101562,
3.3300000000000001,-0.041638217866420746,
3.3325,-0.049739878624677658,
3.335,-0.053754650056362152,
3.3374999999999999,-0.057529013603925705,
3.3399999999999999,-0.060798525810241699,
3.3424999999999998,-0.065438352525234222,
3.3450000000000002,-0.066688463091850281,
3.3475000000000001,-0.067169271409511566,
3.3500000000000001,-0.066904827952384949,
3.3525,-0.064572893083095551,
3.355,-0.062817931175231934,
3.3574999999999999,-0.061111055314540863,
3.3599999999999999,-0.05966862291097641,
3.3624999999999998,-0.058346390724182129,
3.3650000000000002,-0.05863487720489502,
3.3675000000000002,-0.059380136430263519,
3.3700000000000001,-0.060389839112758636,
3.3725000000000001,-0.062265001237392426,
3.375,-0.062721773982048035,
3.3774999999999999,-0.062890052795410156,
3.3799999999999999,-0.062793895602226257,
3.3824999999999998,-0.06245732307434082,
3.3849999999999998,-0.062577530741691589,
3.3875000000000002,-0.062962174415588379,
3.3900000000000001,-0.063563190400600433,
3.3925000000000001,-0.065246030688285828,
3.395,-0.066039368510246277,
3.3975,-0.066712498664855957,
3.3999999999999999,-0.067193314433097839,
3.4024999999999999,-0.067409679293632507,
3.4049999999999998,-0.06707310676574707,
3.4075000000000002,-0.066327854990959167,
3.4100000000000001,-0.065101787447929382,
3.4125000000000001,-0.061303377151489258,
3.415,-0.058851242065429688,
3.4175,-0.056278906762599945,
3.4199999999999999,-0.053802728652954102,
3.4224999999999999,-0.049932204186916351,
3.4249999999999998,-0.048778258264064789,
3.4275000000000002,-0.048081081360578537,
3.4300000000000002,-0.047744512557983398,
3.4325000000000001,-0.047504108399152756,
3.4350000000000001,-0.047287743538618088,
3.4375,-0.046999257057905197,
3.4399999999999999,-0.046638648957014084,
3.4424999999999999,-0.045893393456935883,
3.4449999999999998,-0.045628946274518967,
3.4474999999999998,-0.045388542115688324,
3.4500000000000002,-0.045100055634975433,
3.4525000000000001,-0.044138431549072266,
3.4550000000000001,-0.04336913675069809,
3.4575,-0.04257579892873764,
3.46,-0.041902661323547363,
3.4624999999999999,-0.041445892304182053,
3.4649999999999999,-0.041950743645429611,
3.4674999999999998,-0.04291236400604248,
3.4700000000000002,-0.044186513870954514,
3.4725000000000001,-0.046879053115844727,
3.4750000000000001,-0.047816634178161621,
3.4775,-0.048249363899230957,
3.48,-0.048129163682460785,
3.4824999999999999,-0.046061675995588303,
3.4849999999999999,-0.044378839433193207,
3.4874999999999998,-0.042383473366498947,
3.4900000000000002,-0.04029194638133049,
3.4925000000000002,-0.036878190934658051,
3.4950000000000001,-0.035964649170637131,
3.4975000000000001,-0.035964649170637131,
3.5,-0.036998391151428223,
3.5024999999999999,-0.041782461106777191,
3.5049999999999999,-0.04507601261138916,
3.5074999999999998,-0.048345528542995453,
3.5099999999999998,-0.051038067787885666,
3.5125000000000002,-0.052913229912519455,
3.5150000000000001,-0.05151887983083725,
3.5175000000000001,-0.048706136643886566,
3.52,-0.04473944753408432,
3.5225,-0.035267472267150879,
3.5249999999999999,-0.030868053436279297,
3.5274999999999999,-0.027165811508893967,
3.5299999999999998,-0.02444922924041748,
3.5325000000000002,-0.022117298096418381,
3.5350000000000001,-0.022333662956953049,
3.5375000000000001,-0.023271244019269943,
3.54,-0.024785798043012619,
3.5425,-0.028632283210754395,
3.5449999999999999,-0.030579566955566406,
3.5474999999999999,-0.032238364219665527,
3.5499999999999998,-0.033368270844221115,
3.5525000000000002,-0.033488474786281586,
3.5550000000000002,-0.032382607460021973,
3.5575000000000001,-0.030771892517805099,
3.5600000000000001,-0.02889673039317131,
3.5625,-0.025747418403625488,
3.5649999999999999,-0.025146406143903732,
3.5674999999999999,-0.025507014244794846,
3.5699999999999998,-0.026805203408002853,
3.5724999999999998,-0.03197392076253891,
3.5750000000000002,-0.035315554589033127,
3.5775000000000001,-0.038849513977766037,
3.5800000000000001,-0.042239230126142502,
3.5825,-0.047407947480678558,
3.585,-0.048706136643886566,
3.5874999999999999,-0.048850379884243011,
3.5899999999999999,-0.047744512557983398,
3.5924999999999998,-0.042046904563903809,
3.5950000000000002,-0.037935972213745117,
3.5975000000000001,-0.033560596406459808,
3.6000000000000001,-0.029449662193655968,
3.6025,-0.023824175819754601,
3.605,-0.022958716377615929,
3.6074999999999999,-0.023439526557922363,
3.6099999999999999,-0.024978121742606163,
3.6124999999999998,-0.029666027054190636,
3.6150000000000002,-0.031805634498596191,
3.6175000000000002,-0.033248066902160645,
3.6200000000000001,-0.033752918243408203,
3.6225000000000001,-0.031420987099409103,
3.625,-0.028800567612051964,
3.6274999999999999,-0.025458931922912598,
3.6299999999999999,-0.021612446755170822,
3.6324999999999998,-0.013727148994803429,
3.6349999999999998,-0.010145108215510845,
3.6375000000000002,-0.0072121620178222656,
3.6400000000000001,-0.0050725541077554226,
3.6425000000000001,-0.0034858784638345242,
3.645,-0.0039907298050820827,
3.6475,-0.0051206350326538086,
3.6499999999999999,-0.0066832704469561577,
3.6524999999999999,-0.010433594696223736,
3.6549999999999998,-0.012428959831595421,
3.6575000000000002,-0.014568567276000977,
3.6600000000000001,-0.016996663063764572,
3.6625000000000001,-0.022814473137259483,
3.665,-0.026035904884338379,
3.6675,-0.029113095253705978,
3.6699999999999999,-0.031493108719587326,
3.6724999999999999,-0.031997960060834885,
3.6749999999999998,-0.029137134552001953,
3.6775000000000002,-0.023896297439932823,
3.6800000000000002,-0.016419690102338791,
3.6825000000000001,0.0035820405464619398,
3.6850000000000001,0.01461664866656065,
3.6875,0.02524256706237793,
3.6899999999999999,0.034666460007429123,
3.6924999999999999,0.047095417976379395,
3.6949999999999998,0.049307148903608322,
3.6974999999999998,0.048634015023708344,
3.7000000000000002,0.045172177255153656,
3.7025000000000001,0.031589269638061523,
3.7050000000000001,0.022574067115783691,
3.7075,0.012981891632080078,
3.71,0.0034618377685546875,
3.7124999999999999,-0.0054331622086465359,
3.7149999999999999,-0.0200017299503088,
3.7174999999999998,-0.025458931922912598,
3.7200000000000002,-0.029906433075666428,
3.7225000000000001,-0.036445461213588715,
3.7250000000000001,-0.038945674896240234,
3.7275,-0.041037201881408691,
3.73,-0.042599838227033615,
3.7324999999999999,-0.04370570182800293,
3.7349999999999999,-0.042960446327924728,
3.7374999999999998,-0.041301649063825607,
3.7400000000000002,-0.038873553276062012,
3.7425000000000002,-0.035916566848754883,
3.7450000000000001,-0.029906433075666428,
3.7475000000000001,-0.027862986549735069,
3.75,-0.027141770347952843,
3.7524999999999999,-0.03214220330119133,
3.7549999999999999,-0.03892163559794426,
3.7574999999999998,-0.049138866364955902,
3.7599999999999998,-0.062986217439174652,
3.7625000000000002,-0.10015289485454559,
3.7650000000000001,-0.12162109464406967,
3.7675000000000001,-0.14289698004722595,
3.77,-0.1616005152463913,
3.7725,-0.18090507388114929,
3.7749999999999999,-0.17592868208885193,
3.7774999999999999,-0.15787422657012939,
3.7799999999999998,-0.12496273219585419,
3.7825000000000002,-0.011299054138362408,
3.7850000000000001,0.068347260355949402,
3.7875000000000001,0.16044656932353973,
3.79,0.26148897409439087,
3.7925,0.47018489241600037,
3.7949999999999999,0.56579411029815674,
3.7974999999999999,0.64700305461883545,
3.7999999999999998,0.70763331651687622,
3.8025000000000002,0.74881476163864136,
3.8050000000000002,0.72455787658691406,
3.8075000000000001,0.67089939117431641,
3.8100000000000001,0.59118092060089111,
3.8125,0.37659507989883423,
3.8149999999999999,0.25641641020774841,
3.8174999999999999,0.13818502426147461,
3.8199999999999998,0.028944810852408409,
3.8224999999999998,-0.14078140258789062,
3.8250000000000002,-0.19528131186962128,
3.8275000000000001,-0.22893807291984558,
3.8300000000000001,-0.24350664019584656,
3.8325,-0.22927463054656982,
3.835,-0.20888826251029968,
3.8374999999999999,-0.185280442237854,
3.8399999999999999,-0.16208133101463318,
3.8424999999999998,-0.12587627768516541,
3.8450000000000002,-0.11476954072713852,
3.8475000000000001,-0.10799010843038559,
3.8500000000000001,-0.10426382720470428,
3.8525,-0.10003268718719482,
3.855,-0.096763178706169128,
3.8574999999999999,-0.091450214385986328,
3.8599999999999999,-0.083949565887451172,
3.8624999999999998,-0.06325066089630127,
3.8650000000000002,-0.051398675888776779,
3.8675000000000002,-0.039642851799726486,
3.8700000000000001,-0.028560161590576172,
3.8725000000000001,-0.010097026824951172,
3.875,-0.0029810271225869656,
3.8774999999999999,0.0029089055024087429,
3.8799999999999999,0.0076689324341714382,
3.8824999999999998,0.011659662239253521,
3.8849999999999998,0.018222730606794357,
3.8875000000000002,0.021131634712219238,
3.8900000000000001,0.024040540680289268,
3.8925000000000001,0.029906433075666428,
3.895,0.032815337181091309,
3.8975,0.03555595874786377,
3.8999999999999999,0.037935972213745117,
3.9024999999999999,0.041181445121765137,
3.9049999999999998,0.041878622025251389,
3.9075000000000002,0.041974782943725586,
3.9100000000000001,0.041614174842834473,
3.9125000000000001,0.039979420602321625,
3.915,0.038969717919826508,
3.9175,0.03800809383392334,
3.9199999999999999,0.037046473473310471,
3.9224999999999999,0.035700201988220215,
3.9249999999999998,0.035604041069746017,
3.9275000000000002,0.036108892410993576,
3.9300000000000002,0.037623446434736252,
3.9325000000000001,0.044210553169250488,
3.9350000000000001,0.049307148903608322,
3.9375,0.055341325700283051,
3.9399999999999999,0.061784189194440842,
3.9424999999999999,0.073732338845729828,
3.9449999999999998,0.078227922320365906,
3.9474999999999998,0.081281065940856934,
3.9500000000000002,0.082987949252128601,
3.9525000000000001,0.08349280059337616,
3.9550000000000001,0.083300471305847168,
3.9575,0.083516836166381836,
3.96,0.084526538848876953,
3.9624999999999999,0.086666151881217957,
3.9649999999999999,0.094527408480644226,
3.9674999999999998,0.10003268718719482,
3.9700000000000002,0.10635535418987274,
3.9725000000000001,0.12041907012462616,
3.9750000000000001,0.12772738933563232,
3.9775,0.13498763740062714,
3.98,0.14195939898490906,
3.9824999999999999,0.15477299690246582,
3.9849999999999999,0.1605667769908905,
3.9874999999999998,0.16595184803009033,
3.9900000000000002,0.17109653353691101,
3.9925000000000002,0.18083295226097107,
3.9950000000000001,0.18552085757255554,
3.9975000000000001,0.1900404691696167,
4,0.19419948756694794,83.18890380859375
4.0025000000000004,0.20102700591087341,
4.0049999999999999,0.20350317656993866,
4.0075000000000003,0.20537833869457245,
4.0099999999999998,0.20679673552513123,
4.0125000000000002,0.20917674899101257,
4.0149999999999997,0.21052300930023193,
4.0175000000000001,0.21218180656433105,
4.0199999999999996,0.21403293311595917,
4.0225,0.21785537898540497,
4.0250000000000004,0.21934589743614197,
4.0274999999999999,0.22021135687828064,
4.0300000000000002,0.22028347849845886,
4.0324999999999998,0.21727840602397919,
4.0350000000000001,0.21400889754295349,
4.0374999999999996,0.20941714942455292,
4.04,0.20335893332958221,
4.0425000000000004,0.18681904673576355,
4.0449999999999999,0.17638544738292694,
4.0475000000000003,0.16465365886688232,
4.0499999999999998,0.15193621814250946,
4.0525000000000002,0.12472232431173325,
4.0549999999999997,0.11080285161733627,
4.0575000000000001,0.097027622163295746,
4.0599999999999996,0.083516836166381836,
4.0625,0.057601135224103928,
4.0650000000000004,0.045364499092102051,
4.0674999999999999,0.033728878945112228,
4.0700000000000003,0.022862553596496582,
4.0724999999999998,0.0041109323501586914,
4.0750000000000002,-0.0036060810089111328,
4.0774999999999997,-0.010169148445129395,
4.0800000000000001,-0.015746554359793663,
4.0824999999999996,-0.024689635261893272,
4.085,-0.028415918350219727,
4.0875000000000004,-0.031853716820478439,
4.0899999999999999,-0.034978985786437988,
4.0925000000000002,-0.040243864059448242,
4.0949999999999998,-0.04228731244802475,
4.0975000000000001,-0.043898027390241623,
4.0999999999999996,-0.045220255851745605,
4.1025,-0.047624312341213226,
4.1050000000000004,-0.048946540802717209,
4.1074999999999999,-0.050461094826459885,
4.1100000000000003,-0.052047770470380783,
4.1124999999999998,-0.054812431335449219,
4.1150000000000002,-0.055557690560817719,
4.1174999999999997,-0.055677890777587891,
4.1200000000000001,-0.055197082459926605,
4.1224999999999996,-0.052648782730102539,
4.125,-0.050989985466003418,
4.1275000000000004,-0.04935523122549057,
4.1299999999999999,-0.047936838120222092,
4.1325000000000003,-0.046133797615766525,
4.1349999999999998,-0.045917432755231857,
4.1375000000000002,-0.046181879937648773,
4.1399999999999997,-0.046999257057905197,
4.1425000000000001,-0.050148569047451019,
4.1449999999999996,-0.052360296249389648,
4.1475,-0.054812431335449219,
4.1500000000000004,-0.057240527123212814,
4.1524999999999999,-0.061014890670776367,
4.1550000000000002,-0.06200055405497551,
4.1574999999999998,-0.0622890405356884,
4.1600000000000001,-0.062072675675153732,
4.1624999999999996,-0.060990851372480392,
4.165,-0.060654282569885254,
4.1675000000000004,-0.060726404190063477,
4.1699999999999999,-0.061279337853193283,
4.1725000000000003,-0.063178539276123047,
4.1749999999999998,-0.064068041741847992,
4.1775000000000002,-0.064524814486503601,
4.1799999999999997,-0.064404606819152832,
4.1825000000000001,-0.061880350112915039,
4.1849999999999996,-0.059452258050441742,
4.1875,-0.05642315000295639,
4.1900000000000004,-0.05293726921081543,
4.1924999999999999,-0.045268338173627853,
4.1950000000000003,-0.041566096246242523,
4.1974999999999998,-0.038248501718044281,
4.2000000000000002,-0.035604041069746017,
4.2024999999999997,-0.033127866685390472,
4.2050000000000001,-0.033368270844221115,
4.2074999999999996,-0.034546256065368652,
4.21,-0.036349296569824219,
4.2125000000000004,-0.04046022891998291,
4.2149999999999999,-0.042094986885786057,
4.2175000000000002,-0.043080650269985199,
4.2199999999999998,-0.04336913675069809,
4.2225000000000001,-0.042191147804260254,
4.2249999999999996,-0.041013162583112717,
4.2275,-0.039690934121608734,
4.2300000000000004,-0.038392744958400726,
4.2324999999999999,-0.036132931709289551,
4.2350000000000003,-0.035267472267150879,
4.2374999999999998,-0.0345943383872509,
4.2400000000000002,-0.034257769584655762,
4.2424999999999997,-0.03476262092590332,
4.2450000000000001,-0.03567616268992424,
4.2474999999999996,-0.03692626953125,
4.25,-0.038368701934814453,
4.2525000000000004,-0.040724676102399826,
4.2549999999999999,-0.041157405823469162,
4.2575000000000003,-0.040892958641052246,
4.2599999999999998,-0.039931338280439377,
4.2625000000000002,-0.036685865372419357,
4.2649999999999997,-0.034906864166259766,
4.2675000000000001,-0.033464431762695312,
4.2699999999999996,-0.032526850700378418,
4.2725,-0.032623015344142914,
4.2750000000000004,-0.033656757324934006,
4.2774999999999999,-0.035147272050380707,
4.2800000000000002,-0.036998391151428223,
4.2824999999999998,-0.041037201881408691,
4.2850000000000001,-0.042816203087568283,
4.2874999999999996,-0.044162474572658539,
4.29,-0.044859647750854492,
4.2925000000000004,-0.043585501611232758,
4.2949999999999999,-0.04154205322265625,
4.2975000000000003,-0.038657188415527344,
4.2999999999999998,-0.035243432968854904,
4.3025000000000002,-0.028295716270804405,
4.3049999999999997,-0.02553105354309082,
4.3075000000000001,-0.023583769798278809,
4.3099999999999996,-0.022646188735961914,
4.3125,-0.023391446098685265,
4.3150000000000004,-0.024713676422834396,
4.3174999999999999,-0.026372473686933517,
4.3200000000000003,-0.028127431869506836,
4.3224999999999998,-0.029906433075666428,
4.3250000000000002,-0.033031702041625977,
4.3274999999999997,-0.034353934228420258,
4.3300000000000001,-0.035483837127685547,
4.3324999999999996,-0.03692626953125,
4.335,-0.037286877632141113,
4.3375000000000004,-0.037383042275905609,
4.3399999999999999,-0.037383042275905609,
4.3425000000000002,-0.037503242492675781,
4.3449999999999998,-0.037767689675092697,
4.3475000000000001,-0.038176380097866058,
4.3499999999999996,-0.038681231439113617,
4.3525,-0.039113961160182953,
4.3550000000000004,-0.038729310035705566,
4.3574999999999999,-0.037815771996974945,
4.3600000000000003,-0.036397378891706467,
4.3624999999999998,-0.032839380204677582,
4.3650000000000002,-0.031132500618696213,
4.3674999999999997,-0.029810270294547081,
4.3700000000000001,-0.029016932472586632,
4.3724999999999996,-0.028992891311645508,
4.375,-0.029666027054190636,
4.3775000000000004,-0.030579566955566406,
4.3799999999999999,-0.031517148017883301,
4.3825000000000003,-0.032935541123151779,
4.3849999999999998,-0.032959580421447754,
4.3875000000000002,-0.03231048583984375,
4.3899999999999997,-0.030819972977042198,
4.3925000000000001,-0.025026202201843262,
4.3949999999999996,-0.020963352173566818,
4.3975,-0.016515851020812988,
4.4000000000000004,-0.012212594971060753,
4.4024999999999999,-0.0062986216507852077,
4.4050000000000002,-0.0056254863739013672,
4.4074999999999998,-0.006827513687312603,
4.4100000000000001,-0.0097845001146197319,
4.4124999999999996,-0.018895864486694336,
4.415,-0.023655891418457031,
4.4175000000000004,-0.027478337287902832,
4.4199999999999999,-0.029666027054190636,
4.4225000000000003,-0.027766823768615723,
4.4249999999999998,-0.023511648178100586,
4.4275000000000002,-0.017405351623892784,
4.4299999999999997,-0.0099768247455358505,
4.4325000000000001,0.0065871081314980984,
4.4349999999999996,0.014352202415466309,
4.4375,0.020963352173566818,
4.4400000000000004,0.025891661643981934,
4.4424999999999999,0.02906501293182373,
4.4450000000000003,0.027117729187011719,
4.4474999999999998,0.022934675216674805,
4.4500000000000002,0.016924541443586349,
4.4524999999999997,0.0018030405044555664,
4.4550000000000001,-0.0061062974855303764,
4.4574999999999996,-0.013510784134268761,
4.46,-0.020049810409545898,
4.4625000000000004,-0.030267041176557541,
4.4649999999999999,-0.034089487046003342,
4.4675000000000002,-0.037310920655727386,
4.4699999999999998,-0.040219824761152267,
4.4725000000000001,-0.045460663735866547,
4.4749999999999996,-0.047936838120222092,
4.4775,-0.050196647644042969,
4.4800000000000004,-0.05214393138885498,
4.4824999999999999,-0.054523944854736328,
4.4850000000000003,-0.054620109498500824,
4.4874999999999998,-0.053922932595014572,
4.4900000000000002,-0.052528582513332367,
4.4924999999999997,-0.048537850379943848,
4.4950000000000001,-0.047095417976379395,
4.4974999999999996,-0.04707137867808342,
4.5,-0.049427352845668793,
4.5025000000000004,-0.064981579780578613,
4.5049999999999999,-0.0791655033826828,
4.5075000000000003,-0.097508430480957031,
4.5099999999999998,-0.11909683793783188,
4.5125000000000002,-0.16472578048706055,
4.5149999999999997,-0.18391013145446777,
4.5175000000000001,-0.1968439519405365,
4.5199999999999996,-0.20057022571563721,
4.5225,-0.17066380381584167,
4.5250000000000004,-0.13347308337688446,
4.5274999999999999,-0.080439649522304535,
4.5300000000000002,-0.012092391960322857,
4.5324999999999998,0.16333143413066864,
4.5350000000000001,0.26379686594009399,
4.5374999999999996,0.36666631698608398,
4.54,0.46631437540054321,
4.5425000000000004,0.63140076398849487,
4.5449999999999999,0.6852756142616272,
4.5475000000000003,0.71373963356018066,
4.5499999999999998,0.71395599842071533,
4.5525000000000002,0.62849187850952148,
4.5549999999999997,0.5474511981010437,
4.5575000000000001,0.44727426767349243,
4.5599999999999996,0.33459624648094177,
4.5625,0.10094623267650604,
4.5650000000000004,-0.0058178110048174858,
4.5674999999999999,-0.098085403442382812,
4.5700000000000003,-0.17201006412506104,
4.5724999999999998,-0.25850793719291687,
4.5750000000000002,-0.27254760265350342,
4.5774999999999997,-0.27055224776268005,
4.5800000000000001,-0.25622409582138062,
4.5824999999999996,-0.20689289271831512,
4.585,-0.1790299117565155,
4.5875000000000004,-0.15260934829711914,
4.5899999999999999,-0.12916982173919678,
4.5925000000000002,-0.093109011650085449,
4.5949999999999998,-0.080006919801235199,
4.5975000000000001,-0.069380998611450195,
4.5999999999999996,-0.060582160949707031,
4.6025,-0.046927135437726974,
4.6050000000000004,-0.041662257164716721,
4.6074999999999999,-0.037358999252319336,
4.6100000000000003,-0.033993326127529144,
4.6124999999999998,-0.029257338494062424,
4.6150000000000002,-0.027382176369428635,
4.6174999999999997,-0.0253627710044384,
4.6200000000000001,-0.022934675216674805,
4.6224999999999996,-0.016660094261169434,
4.625,-0.012909770011901855,
4.6275000000000004,-0.0090632839128375053,
4.6299999999999999,-0.0053610405884683132,
4.6325000000000003,0.00072121620178222656,
4.6349999999999998,0.0027887027245014906,
4.6375000000000002,0.0041830539703369141,
4.6399999999999997,0.0049523515626788139,
4.6425000000000001,0.0047600269317626953,
4.6449999999999996,0.0041349730454385281,
4.6475,0.0033897161483764648,
4.6500000000000004,0.0026444594841450453,
4.6524999999999999,0.0021636486053466797,
4.6550000000000002,0.0025963783264160156,
4.6574999999999998,0.0035099189262837172,
4.6600000000000001,0.0048081083223223686,
4.6624999999999996,0.0075727701187133789,
4.665,0.0087267160415649414,
4.6675000000000004,0.0095921754837036133,
4.6699999999999999,0.010217229835689068,
4.6725000000000003,0.011900067329406738,
4.6749999999999998,0.013558864593505859,
4.6775000000000002,0.016179284080862999,
4.6799999999999997,0.019881527870893478,
4.6825000000000001,0.030098756775259972,
4.6849999999999996,0.036084853112697601,
4.6875,0.042191147804260254,
4.6900000000000004,0.048008959740400314,
4.6924999999999999,0.058274269104003906,
4.6950000000000003,0.062601566314697266,
4.6974999999999998,0.066592298448085785,
4.7000000000000002,0.070438787341117859,
4.7024999999999997,0.078276000916957855,
4.7050000000000001,0.082531176507472992,
4.7074999999999996,0.087050795555114746,
4.71,0.091810822486877441,
4.7125000000000004,0.10181169211864471,
4.7149999999999999,0.10683616250753403,
4.7175000000000002,0.11171638965606689,
4.7199999999999998,0.11635621637105942,
4.7225000000000001,0.12443383783102036,
4.7249999999999996,0.12782356142997742,
4.7275,0.13090074062347412,
4.7300000000000004,0.1338096559047699,
4.7324999999999999,0.14013230800628662,
4.7350000000000003,0.14397880434989929,
4.7374999999999998,0.1484503448009491,
4.7400000000000002,0.15352289378643036,
4.7424999999999997,0.16460558772087097,
4.7450000000000001,0.17015895247459412,
4.7474999999999996,0.17542383074760437,
4.75,0.18023192882537842,
4.7525000000000004,0.18876633048057556,
4.7549999999999999,0.19268493354320526,
4.7575000000000003,0.19657950103282928,
4.7599999999999998,0.20047406852245331,
4.7625000000000002,0.20749390125274658,
4.7649999999999997,0.2100902795791626,
4.7675000000000001,0.21165291965007782,
4.7699999999999996,0.21184524893760681,
4.7725,0.20768623054027557,
4.7750000000000004,0.20338296890258789,
4.7774999999999999,0.19790172576904297,
4.7800000000000002,0.19148290157318115,
4.7824999999999998,0.17684221267700195,
4.7850000000000001,0.16905307769775391,
4.7874999999999996,0.16111969947814941,
4.79,0.15304207801818848,
4.7925000000000004,0.13647815585136414,
4.7949999999999999,0.12782356142997742,
4.7975000000000003,0.11878430843353271,
4.7999999999999998,0.10921617597341537,
4.8025000000000002,0.087940298020839691,
4.8049999999999997,0.076184473931789398,
4.8075000000000001,0.063779555261135101,
4.8099999999999996,0.050941906869411469,
4.8125,0.025434892624616623,
4.8150000000000004,0.013510784134268761,
4.8174999999999999,0.0025723378639668226,
4.8200000000000003,-0.0071881217882037163,
4.8224999999999998,-0.023247202858328819,
4.8250000000000002,-0.029762189835309982,
4.8274999999999997,-0.03550788015127182,
4.8300000000000001,-0.040676593780517578,
4.8324999999999996,-0.049379270523786545,
4.835,-0.052913229912519455,
4.8375000000000004,-0.055822134017944336,
4.8399999999999999,-0.058057904243469238,
4.8425000000000002,-0.060990851372480392,
4.8449999999999998,-0.061976514756679535,
4.8475000000000001,-0.062890052795410156,
4.8499999999999996,-0.06394784152507782,
4.8525,-0.065246030688285828,
4.8550000000000004,-0.068683825433254242,
4.8574999999999999,-0.070775352418422699,
4.8600000000000003,-0.072963044047355652,
4.8624999999999998,-0.077362462878227234,
4.8650000000000002,-0.079285703599452972,
4.8674999999999997,-0.080800257623195648,
4.8700000000000001,-0.081761881709098816,
4.8724999999999996,-0.081184908747673035,
4.875,-0.079526111483573914,
4.8775000000000004,-0.077001854777336121,
4.8799999999999999,-0.073900625109672546,
4.8825000000000003,-0.067602001130580902,
4.8849999999999998,-0.065342187881469727,
4.8875000000000002,-0.064140163362026215,
4.8899999999999997,-0.064164206385612488,
4.8925000000000001,-0.067385636270046234,
4.8949999999999996,-0.069861814379692078,
4.8975,-0.072265863418579102,
4.9000000000000004,-0.074141025543212891,
4.9024999999999999,-0.075294971466064453,
4.9050000000000002,-0.074429512023925781,
4.9074999999999998,-0.07277071475982666,
4.9100000000000001,-0.070655152201652527,
4.9124999999999996,-0.066183611750602722,
4.915,-0.064404606819152832,
4.9175000000000004,-0.063226625323295593,
4.9199999999999999,-0.062793895602226257,
4.9225000000000003,-0.064356528222560883,
4.9249999999999998,-0.066231690347194672,
4.9275000000000002,-0.068539582192897797,
4.9299999999999997,-0.070967674255371094,
4.9325000000000001,-0.074742041528224945,
4.9349999999999996,-0.075415179133415222,
4.9375,-0.075030528008937836,
4.9400000000000004,-0.073564052581787109,
4.9424999999999999,-0.068611703813076019,
4.9450000000000003,-0.065823003649711609,
4.9474999999999998,-0.063370868563652039,
4.9500000000000002,-0.061471663415431976,
4.9524999999999997,-0.059356093406677246,
4.9550000000000001,-0.058731041848659515,
4.9574999999999996,-0.058009825646877289,
4.96,-0.056855879724025726,
4.9625000000000004,-0.052961312234401703,
4.9649999999999999,-0.050316851586103439,
4.9675000000000002,-0.04752814769744873,
4.9699999999999998,-0.044883690774440765,
4.9725000000000001,-0.041109323501586914,
4.9749999999999996,-0.040195785462856293,
4.9775,-0.039955377578735352,
4.9800000000000004,-0.040219824761152267,
4.9824999999999999,-0.041806500405073166,
4.9850000000000003,-0.042888324707746506,
4.9874999999999998,-0.044066309928894043,
4.9900000000000002,-0.045244298875331879,
4.9924999999999997,-0.047720473259687424,
4.9950000000000001,-0.049018662422895432,
4.9974999999999996,-0.050413012504577637,
5,-0.051903527230024338,81.2379150390625
5.0025000000000004,-0.055509608238935471,
5.0049999999999999,-0.057577095925807953,
5.0075000000000003,-0.059692662209272385,
5.0099999999999998,-0.061688028275966644,
5.0125000000000002,-0.06423632800579071,
5.0149999999999997,-0.064356528222560883,
5.0175000000000001,-0.063515111804008484,
5.0199999999999996,-0.061760149896144867,
5.0225,-0.059332054108381271,
5.0250000000000004,-0.053922932595014572,
5.0274999999999999,-0.051639080047607422,
5.0300000000000002,-0.050028365105390549,
5.0324999999999998,-0.048874419182538986,
5.0350000000000001,-0.048994623124599457,
5.0374999999999996,-0.049210987985134125,
5.04,-0.049138866364955902,
5.0425000000000004,-0.047648351639509201,
5.0449999999999999,-0.046181879937648773,
5.0475000000000003,-0.044402878731489182,
5.0499999999999998,-0.042551755905151367,
5.0525000000000002,-0.039546690881252289,
5.0549999999999997,-0.038681231439113617,
5.0575000000000001,-0.038416784256696701,
5.0599999999999996,-0.038705270737409592,
5.0625,-0.040917001664638519,
5.0650000000000004,-0.042671959847211838,
5.0674999999999999,-0.044691365212202072,
5.0700000000000003,-0.046782892197370529,
5.0724999999999998,-0.050292812287807465,
5.0750000000000002,-0.051254432648420334,
5.0774999999999997,-0.051566958427429199,
5.0800000000000001,-0.051182311028242111,
5.0824999999999996,-0.048970580101013184,
5.085,-0.047624312341213226,
5.0875000000000004,-0.046446323394775391,
5.0899999999999999,-0.045604906976222992,
5.0925000000000002,-0.045027934014797211,
5.0949999999999998,-0.045051973313093185,
5.0975000000000001,-0.045124094933271408,
5.0999999999999996,-0.04507601261138916,
5.1025,-0.044763486832380295,
5.1050000000000004,-0.044763486832380295,
5.1074999999999999,-0.045027934014797211,
5.1100000000000003,-0.045725107192993164,
5.1124999999999998,-0.048417650163173676,
5.1150000000000002,-0.050052404403686523,
5.1174999999999997,-0.051615040749311447,
5.1200000000000001,-0.05276898667216301,
5.1224999999999996,-0.053249798715114594,
5.125,-0.052504539489746094,
5.1275000000000004,-0.051182311028242111,
5.1299999999999999,-0.049499474465847015,
5.1325000000000003,-0.045749150216579437,
5.1349999999999998,-0.043946109712123871,
5.1375000000000002,-0.042311351746320724,
5.1399999999999997,-0.040892958641052246,
5.1425000000000001,-0.038585066795349121,
5.1449999999999996,-0.0376715287566185,
5.1475,-0.036806069314479828,
5.1500000000000004,-0.03584444522857666,
5.1524999999999999,-0.033175945281982422,
5.1550000000000002,-0.031156539916992188,
5.1574999999999998,-0.028632283210754395,
5.1600000000000001,-0.025675296783447266,
5.1624999999999996,-0.019304554909467697,
5.165,-0.016612013801932335,
5.1675000000000004,-0.014640688896179199,
5.1699999999999999,-0.013679067604243755,
5.1725000000000003,-0.015193621627986431,
5.1749999999999998,-0.017477473244071007,
5.1775000000000002,-0.020482540130615234,
5.1799999999999997,-0.023920338600873947,
5.1825000000000001,-0.030964216217398643,
5.1849999999999996,-0.034089487046003342,
5.1875,-0.036613743752241135,
5.1900000000000004,-0.03829658031463623,
5.1924999999999999,-0.03892163559794426,
5.1950000000000003,-0.035916566848754883,
5.1974999999999998,-0.032046042382717133,
5.2000000000000002,-0.026588838547468185,
5.2024999999999997,-0.012092391960322857,
5.2050000000000001,-0.0041590137407183647,
5.2074999999999996,0.0034137568436563015,
5.21,0.0099047031253576279,
5.2125000000000004,0.017597675323486328,
5.2149999999999999,0.018222730606794357,
5.2175000000000002,0.016612013801932335,
5.2199999999999998,0.013029973022639751,
5.2225000000000001,0.0012260675430297852,
5.2249999999999996,-0.0061543784104287624,
5.2275,-0.01384735107421875,
5.2300000000000004,-0.021468203514814377,
5.2324999999999999,-0.034954946488142014,
5.2350000000000003,-0.04029194638133049,
5.2374999999999998,-0.044571161270141602,
5.2400000000000002,-0.047864716500043869,
5.2424999999999997,-0.052240096032619476,
5.2450000000000001,-0.053874850273132324,
5.2474999999999996,-0.055389404296875,
5.25,-0.056831836700439453,
5.2525000000000004,-0.059067606925964355,
5.2549999999999999,-0.059308014810085297,
5.2575000000000003,-0.058658920228481293,
5.2599999999999998,-0.057000122964382172,
5.2625000000000002,-0.05151887983083725,
5.2649999999999997,-0.048754215240478516,
5.2675000000000001,-0.046975217759609222,
5.2699999999999996,-0.047143500298261642,
5.2725,-0.056567393243312836,
5.2750000000000004,-0.066856741905212402,
5.2774999999999999,-0.081088744103908539,
5.2800000000000002,-0.098878741264343262,
5.2824999999999998,-0.14150261878967285,
5.2850000000000001,-0.16345164179801941,
5.2874999999999996,-0.18314084410667419,
5.29,-0.19814214110374451,
5.2925000000000004,-0.20333489775657654,
5.2949999999999999,-0.18821339309215546,
5.2975000000000003,-0.15840312838554382,
5.2999999999999998,-0.11250972747802734,
5.3025000000000002,0.027646621689200401,
5.3049999999999997,0.11876027286052704,
5.3075000000000001,0.21968245506286621,
5.3099999999999996,0.32560509443283081,
5.3125,0.52891594171524048,
5.3150000000000004,0.61356270313262939,
5.3174999999999999,0.67864042520523071,
5.3200000000000003,0.71900451183319092,
5.3224999999999998,0.71285009384155273,
5.3250000000000002,0.66493731737136841,
5.3274999999999997,0.59002697467803955,
5.3300000000000001,0.4929032027721405,
5.3324999999999996,0.2592291533946991,
5.335,0.13842543959617615,
5.3375000000000004,0.025194486603140831,
5.3399999999999999,-0.074068903923034668,
5.3425000000000002,-0.21432141959667206,
5.3449999999999998,-0.25244972109794617,
5.3475000000000001,-0.27057629823684692,
5.3499999999999996,-0.27180236577987671,
5.3525,-0.23946782946586609,
5.3550000000000004,-0.21412909030914307,
5.3574999999999999,-0.18742005527019501,
5.3600000000000003,-0.16186496615409851,
5.3624999999999998,-0.11974593251943588,
5.3650000000000002,-0.10409554094076157,
5.3674999999999997,-0.091618500649929047,
5.3700000000000001,-0.081737838685512543,
5.3724999999999996,-0.067289471626281738,
5.375,-0.061688028275966644,
5.3775000000000004,-0.056855879724025726,
5.3799999999999999,-0.052744947373867035,
5.3825000000000003,-0.046879053115844727,
5.3849999999999998,-0.045316420495510101,
5.3875000000000002,-0.044547121971845627,
5.3899999999999997,-0.044402878731489182,
5.3925000000000001,-0.044619243592023849,
5.3949999999999996,-0.044162474572658539,
5.3975,-0.042936407029628754,
5.4000000000000004,-0.040820837020874023,
5.4024999999999999,-0.034329891204833984,
5.4050000000000002,-0.03060360811650753,
5.4074999999999998,-0.027021568268537521,
5.4100000000000001,-0.023920338600873947,
5.4124999999999996,-0.019617080688476562,
5.415,-0.018174648284912109,
5.4175000000000004,-0.016996663063764572,
5.4199999999999999,-0.015770595520734787,
5.4225000000000003,-0.012621283531188965,
5.4249999999999998,-0.0107701625674963,
5.4275000000000002,-0.0088950004428625107,
5.4299999999999997,-0.0072121620178222656,
5.4325000000000001,-0.0047600269317626953,
5.4349999999999996,-0.0038705270271748304,
5.4375,-0.0030531487427651882,
5.4400000000000004,-0.0019713244400918484,
5.4424999999999999,0.0017309188842773438,
5.4450000000000003,0.004519621841609478,
5.4474999999999998,0.0079574193805456161,
5.4500000000000002,0.011876027099788189,
5.4524999999999997,0.020386379212141037,
5.4550000000000001,0.02461751364171505,
5.4574999999999996,0.028656324371695518,
5.46,0.032358568161725998,
5.4625000000000004,0.035748284310102463,
5.4649999999999999,0.041277609765529633,
5.4675000000000002,0.04353741928935051,
5.4699999999999998,0.045652985572814941,
5.4725000000000001,0.047768555581569672,
5.4749999999999996,0.052985351532697678,
5.4775,0.056447189301252365,
5.4800000000000004,0.060606203973293304,
5.4824999999999999,0.070558987557888031,
5.4850000000000003,0.075799822807312012,
5.4874999999999998,0.080848336219787598,
5.4900000000000002,0.085440084338188171,
5.4924999999999997,0.092964768409729004,
5.4950000000000001,0.096210241317749023,
5.4974999999999996,0.099455714225769043,
5.5,0.10308583825826645,
5.5025000000000004,0.11275013536214828,
5.5049999999999999,0.11895259469747543,
5.5075000000000003,0.12604455649852753,
5.5099999999999998,0.13376156985759735,
5.5125000000000002,0.14996489882469177,
5.5149999999999997,0.15789827704429626,
5.5175000000000001,0.16539892554283142,
5.5199999999999996,0.17225047945976257,
5.5225,0.18350145220756531,
5.5250000000000004,0.18768450617790222,
5.5274999999999999,0.19092997908592224,
5.5300000000000002,0.19330999255180359,
5.5324999999999998,0.1960986852645874,
5.5350000000000001,0.1970362663269043,
5.5374999999999996,0.19797384738922119,
5.54,0.19900760054588318,
5.5425000000000004,0.20124337077140808,
5.5449999999999999,0.20194053649902344,
5.5475000000000003,0.20189246535301208,
5.5499999999999998,0.2007625550031662,
5.5525000000000002,0.19412736594676971,
5.5549999999999997,0.18854996562004089,
5.5575000000000001,0.18157820403575897,
5.5599999999999996,0.17345249652862549,
5.5625,0.15484511852264404,
5.5650000000000004,0.14470002055168152,
5.5674999999999999,0.13414621353149414,
5.5700000000000003,0.12325584888458252,
5.5724999999999998,0.10034521669149399,
5.5750000000000002,0.088493227958679199,
5.5774999999999997,0.076424881815910339,
5.5800000000000001,0.064308449625968933,
5.5824999999999996,0.040315985679626465,
5.585,0.028584202751517296,
5.5875000000000004,0.017188986763358116,
5.5899999999999999,0.0061784191057085991,
5.5925000000000002,-0.014400283806025982,
5.5949999999999998,-0.023728013038635254,
5.5975000000000001,-0.03231048583984375,
5.5999999999999996,-0.040051542222499847,
5.6025,-0.053033433854579926,
5.6050000000000004,-0.058394473046064377,
5.6074999999999999,-0.063034296035766602,
5.6100000000000003,-0.066976949572563171,
5.6124999999999998,-0.072818800806999207,
5.6150000000000002,-0.0745977982878685,
5.6174999999999997,-0.07563154399394989,
5.6200000000000001,-0.075992152094841003,
5.6224999999999996,-0.075487300753593445,
5.625,-0.07522284984588623,
5.6275000000000004,-0.075294971466064453,
5.6299999999999999,-0.075871944427490234,
5.6325000000000003,-0.076905690133571625,
5.6349999999999998,-0.07950206845998764,
5.6375000000000002,-0.08029540628194809,
5.6399999999999997,-0.080271363258361816,
5.6425000000000001,-0.076977811753749847,
5.6449999999999996,-0.073948703706264496,
5.6475,-0.070414744317531586,
5.6500000000000004,-0.066832706332206726,
5.6524999999999999,-0.061399541795253754,
5.6550000000000002,-0.060101352632045746,
5.6574999999999998,-0.059860944747924805,
5.6600000000000001,-0.060606203973293304,
5.6624999999999996,-0.06394784152507782,
5.665,-0.0661114901304245,
5.6675000000000004,-0.068227052688598633,
5.6699999999999999,-0.070150300860404968,
5.6725000000000003,-0.072914958000183105,
5.6749999999999998,-0.073491930961608887,
5.6775000000000002,-0.073491930961608887,
5.6799999999999997,-0.072914958000183105,
5.6825000000000001,-0.07031857967376709,
5.6849999999999996,-0.068731904029846191,
5.6875,-0.067265436053276062,
5.6900000000000004,-0.066135525703430176,
5.6924999999999999,-0.065558552742004395,
5.6950000000000003,-0.066135525703430176,
5.6974999999999998,-0.067241393029689789,
5.7000000000000002,-0.068659782409667969,
5.7024999999999997,-0.071785055100917816,
5.7050000000000001,-0.073227487504482269,
5.7074999999999996,-0.074381433427333832,
5.71,-0.075150728225708008,
5.7125000000000004,-0.075294971466064453,
5.7149999999999999,-0.074477598071098328,
5.7175000000000002,-0.073083244264125824,
5.7199999999999998,-0.071208082139492035,
5.7225000000000001,-0.06678462028503418,
5.7249999999999996,-0.064861379563808441,
5.7275,-0.06353914737701416,
5.7300000000000004,-0.062962174415588379,
5.7324999999999999,-0.064019963145256042,
5.7350000000000003,-0.065125823020935059,
5.7374999999999998,-0.066087447106838226,
5.7400000000000002,-0.066568255424499512,
5.7424999999999997,-0.064813300967216492,
5.7450000000000001,-0.062625609338283539,
5.7474999999999996,-0.059812866151332855,
5.75,-0.056735675781965256,
5.7525000000000004,-0.051422715187072754,
5.7549999999999999,-0.04969179630279541,
5.7575000000000003,-0.048754215240478516,
5.7599999999999998,-0.048537850379943848,
5.7625000000000002,-0.04952351376414299,
5.7649999999999997,-0.050485134124755859,
5.7675000000000001,-0.05151887983083725,
5.7699999999999996,-0.052576661109924316,
5.7725,-0.054596066474914551,
5.7750000000000004,-0.055461525917053223,
5.7774999999999999,-0.056230824440717697,
5.7800000000000002,-0.056952040642499924,
5.7824999999999998,-0.058130025863647461,
5.7850000000000001,-0.058827202767133713,
5.7874999999999996,-0.05966862291097641,
5.79,-0.060654282569885254,
5.7925000000000004,-0.062938138842582703,
5.7949999999999999,-0.063875719904899597,
5.7975000000000003,-0.064380571246147156,
5.7999999999999998,-0.064308449625968933,
5.8025000000000002,-0.062072675675153732,
5.8049999999999997,-0.060173474252223969,
5.8075000000000001,-0.058033864945173264,
5.8099999999999996,-0.055990420281887054,
5.8125,-0.053345959633588791,
5.8150000000000004,-0.053033433854579926,
5.8174999999999999,-0.053394041955471039,
5.8200000000000003,-0.054355662316083908,
5.8224999999999998,-0.057192444801330566,
5.8250000000000002,-0.058827202767133713,
5.8274999999999997,-0.060413878411054611,
5.8300000000000001,-0.06183227151632309,
5.8324999999999996,-0.063995920121669769,
5.835,-0.064500771462917328,
5.8375000000000004,-0.064500771462917328,
5.8399999999999999,-0.06394784152507782,
5.8425000000000002,-0.061255298554897308,
5.8449999999999998,-0.059428215026855469,
5.8475000000000001,-0.05755305290222168,
5.8499999999999996,-0.055918298661708832,
5.8525,-0.054259501397609711,
5.8550000000000004,-0.054403744637966156,
5.8574999999999999,-0.055197082459926605,
5.8600000000000003,-0.056519310921430588,
5.8624999999999998,-0.059860944747924805,
5.8650000000000002,-0.061495702713727951,
5.8674999999999997,-0.062841974198818207,
5.8700000000000001,-0.063683390617370605,
5.8724999999999996,-0.063298746943473816,
5.875,-0.061880350112915039,
5.8775000000000004,-0.059572458267211914,
5.8799999999999999,-0.05659143254160881,
5.8825000000000003,-0.049571596086025238,
5.8849999999999998,-0.046446323394775391,
5.8875000000000002,-0.044138431549072266,
5.8899999999999997,-0.042960446327924728,
5.8925000000000001,-0.044667325913906097,
5.8949999999999996,-0.04723966121673584,
5.8975,-0.050533216446638107,
5.9000000000000004,-0.054115258157253265,
5.9024999999999999,-0.060461960732936859,
5.9050000000000002,-0.062793895602226257,
5.9074999999999998,-0.064476728439331055,
5.9100000000000001,-0.065534517168998718,
5.9124999999999996,-0.066063404083251953,
5.915,-0.065726839005947113,
5.9175000000000004,-0.064693093299865723,
5.9199999999999999,-0.063034296035766602,
5.9225000000000003,-0.057456891983747482,
5.9249999999999998,-0.053778689354658127,
5.9275000000000002,-0.049812000244855881,
5.9299999999999997,-0.045917432755231857,
5.9325000000000001,-0.039811134338378906,
5.9349999999999996,-0.038104258477687836,
5.9375,-0.037334959954023361,
5.9400000000000004,-0.037431120872497559,
5.9424999999999999,-0.03904183954000473,
5.9450000000000003,-0.039931338280439377,
5.9474999999999998,-0.040508311241865158,
5.9500000000000002,-0.040484271943569183,
5.9524999999999997,-0.038368701934814453,
5.9550000000000001,-0.036325257271528244,
5.9574999999999996,-0.033801000565290451,
5.96,-0.031108459457755089,
5.9625000000000004,-0.026492675766348839,
5.9649999999999999,-0.025290649384260178,
5.9675000000000002,-0.025266608223319054,
5.9699999999999998,-0.026468634605407715,
5.9725000000000001,-0.032262407243251801,
5.9749999999999996,-0.036181014031171799,
5.9775,-0.040051542222499847,
5.9800000000000004,-0.04336913675069809,
5.9824999999999999,-0.046374201774597168,
5.9850000000000003,-0.045532785356044769,
5.9874999999999998,-0.043080650269985199,
5.9900000000000002,-0.039138000458478928,
5.9924999999999997,-0.027838945388793945,
5.9950000000000001,-0.021107595413923264,
5.9974999999999996,-0.014015635475516319,
6,-0.006923675537109375,80.305923461914062
6.0025000000000004,0.0059380135498940945,
6.0049999999999999,0.010890364646911621,
6.0075000000000003,0.014328162185847759,
6.0099999999999998,0.015962919220328331,
6.0125000000000002,0.013366540893912315,
6.0149999999999997,0.0093998517841100693,
6.0175000000000001,0.0041590137407183647,
6.0199999999999996,-0.0019232432823628187,
6.0225,-0.014496445655822754,
6.0250000000000004,-0.020338296890258789,
6.0274999999999999,-0.025747418403625488,
6.0300000000000002,-0.030675729736685753,
6.0324999999999998,-0.039787095040082932,
6.0350000000000001,-0.044234596192836761,
6.0374999999999996,-0.048561893403530121,
6.04,-0.052720904350280762,
6.0425000000000004,-0.059548418968915939,
6.0449999999999999,-0.061639945954084396,
6.0475000000000003,-0.062577530741691589,
6.0499999999999998,-0.06216883659362793,
6.0525000000000002,-0.057408809661865234,
6.0549999999999997,-0.053514242172241211,
6.0575000000000001,-0.049259066581726074,
6.0599999999999996,-0.045388542115688324,
6.0625,-0.04245559498667717,
6.0650000000000004,-0.045460663735866547,
6.0674999999999999,-0.052672825753688812,
6.0700000000000003,-0.064548850059509277,
6.0724999999999998,-0.10214825719594955,
6.0750000000000002,-0.12618879973888397,
6.0774999999999997,-0.15150348842144012,
6.0800000000000001,-0.17588059604167938,
6.0824999999999996,-0.21090766787528992,
6.085,-0.21598021686077118,
6.0875000000000004,-0.20929694175720215,
6.0899999999999999,-0.18869420886039734,
6.0925000000000002,-0.10036925971508026,
6.0949999999999998,-0.032046042382717133,
6.0975000000000001,0.051086150109767914,
6.0999999999999996,0.14657518267631531,
6.1025,0.35863679647445679,
6.1050000000000004,0.46446323394775391,
6.1074999999999999,0.56175529956817627,
6.1100000000000003,0.6439739465713501,
6.1124999999999998,0.73994380235671997,
6.1150000000000002,0.74542504549026489,
6.1174999999999997,0.72027862071990967,
6.1200000000000001,0.66558641195297241,
6.1224999999999996,0.4832148551940918,
6.125,0.36784431338310242,
6.1275000000000004,0.24636745452880859,
6.1299999999999999,0.12676577270030975,
6.1325000000000003,-0.079117417335510254,
6.1349999999999998,-0.15520572662353516,
6.1375000000000002,-0.20972967147827148,
6.1399999999999997,-0.24268925189971924,
6.1425000000000001,-0.25228142738342285,
6.1449999999999996,-0.23636659979820251,
6.1475,-0.21259050071239471,
6.1500000000000004,-0.18520832061767578,
6.1524999999999999,-0.13311247527599335,
6.1550000000000002,-0.11258184909820557,
6.1574999999999998,-0.096763178706169128,
6.1600000000000001,-0.085488162934780121,
6.1624999999999996,-0.073155365884304047,
6.165,-0.070174336433410645,
6.1675000000000004,-0.068227052688598633,
6.1699999999999999,-0.066688463091850281,
6.1725000000000003,-0.063322782516479492,
6.1749999999999998,-0.06108701229095459,
6.1775000000000002,-0.058154068887233734,
6.1799999999999997,-0.054403744637966156,
6.1825000000000001,-0.044234596192836761,
6.1849999999999996,-0.037984054535627365,
6.1875,-0.031348865479230881,
6.1900000000000004,-0.024737715721130371,
6.1924999999999999,-0.013462702743709087,
6.1950000000000003,-0.0095200538635253906,
6.1974999999999998,-0.0068515539169311523,
6.2000000000000002,-0.0054572029039263725,
6.2024999999999997,-0.0051687164232134819,
6.2050000000000001,-0.0055533647537231445,
6.2074999999999996,-0.0058418512344360352,
6.21,-0.0057456893846392632,
6.2125000000000004,-0.0037984054069966078,
6.2149999999999999,-0.0019472837448120117,
6.2175000000000002,0.00043272972106933594,
6.2199999999999998,0.0031973919831216335,
6.2225000000000001,0.009015202522277832,
6.2249999999999996,0.011659662239253521,
6.2275,0.013799270614981651,
6.2300000000000004,0.015337864868342876,
6.2324999999999999,0.01646777056157589,
6.2350000000000003,0.01629948616027832,
6.2374999999999998,0.016083121299743652,
6.2400000000000002,0.016059082001447678,
6.2424999999999997,0.017982324585318565,
6.2450000000000001,0.020314257591962814,
6.2474999999999996,0.023511648178100586,
6.25,0.02752641960978508,
6.2525000000000004,0.037118595093488693,
6.2549999999999999,0.042215190827846527,
6.2575000000000003,0.04735986515879631,
6.2599999999999998,0.052312217652797699,
6.2625000000000002,0.061423581093549728,
6.2649999999999997,0.065414309501647949,
6.2675000000000001,0.06890019029378891,
6.2699999999999996,0.071905255317687988,
6.2725,0.076617203652858734,
6.2750000000000004,0.078684687614440918,
6.2774999999999999,0.080944500863552094,
6.2800000000000002,0.083733201026916504,
6.2824999999999998,0.091882944107055664,
6.2850000000000001,0.097532473504543304,
6.2874999999999996,0.10404746234416962,
6.29,0.11130770295858383,
6.2925000000000004,0.11895259469747543,
6.2949999999999999,0.13409814238548279,
6.2975000000000003,0.14114201068878174,
6.2999999999999998,0.1476089209318161,
6.3025000000000002,0.15893201529979706,
6.3049999999999997,0.1639324426651001,
6.3075000000000001,0.16859631240367889,
6.3099999999999996,0.1730678528547287,
6.3125,0.18205901980400085,
6.3150000000000004,0.186770960688591,
6.3174999999999999,0.19177138805389404,
6.3200000000000003,0.19701223075389862,
6.3224999999999998,0.20761410892009735,
6.3250000000000002,0.21244625747203827,
6.3274999999999997,0.21641294658184052,
6.3300000000000001,0.2192256897687912,
6.3324999999999996,0.22057196497917175,
6.335,0.21908144652843475,
6.3375000000000004,0.21650910377502441,
6.3399999999999999,0.21314343810081482,
6.3425000000000002,0.20939311385154724,
6.3449999999999998,0.20162801444530487,
6.3475000000000001,0.19766132533550262,
6.3499999999999996,0.19340614974498749,
6.3525,0.18273214995861053,
6.3550000000000004,0.17564019560813904,
6.3574999999999999,0.16712984442710876,
6.3600000000000003,0.15712897479534149,
6.3624999999999998,0.13304035365581512,
6.3650000000000002,0.11943340301513672,
6.3674999999999997,0.10512928664684296,
6.3700000000000001,0.090488597750663757,
6.3724999999999996,0.061591863632202148,
6.375,0.04798492044210434,
6.3775000000000004,0.035387676209211349,
6.3799999999999999,0.024016499519348145,
6.3825000000000003,0.0052889189682900906,
6.3849999999999998,-0.0021876893006265163,
6.3875000000000002,-0.0087267160415649414,
6.3899999999999997,-0.01461664866656065,
6.3925000000000001,-0.025458931922912598,
6.3949999999999996,-0.030723810195922852,
6.3975,-0.03584444522857666,
6.4000000000000004,-0.040748715400695801,
6.4024999999999999,-0.049259066581726074,
6.4050000000000002,-0.052624743431806564,
6.4074999999999998,-0.055485568940639496,
6.4100000000000001,-0.057817500084638596,
6.4124999999999996,-0.059740744531154633,
6.415,-0.062697730958461761,
6.4175000000000004,-0.063707433640956879,
6.4199999999999999,-0.064308449625968933,
6.4225000000000003,-0.06428440660238266,
6.4249999999999998,-0.063659355044364929,
6.4275000000000002,-0.062938138842582703,
6.4299999999999997,-0.0622890405356884,
6.4325000000000001,-0.061952471733093262,
6.4349999999999996,-0.062890052795410156,
6.4375,-0.064116120338439941,
6.4400000000000004,-0.065630674362182617,
6.4424999999999999,-0.068515539169311523,
6.4450000000000003,-0.069308876991271973,
6.4474999999999998,-0.069501206278800964,
6.4500000000000002,-0.069044433534145355,
6.4524999999999997,-0.066472098231315613,
6.4550000000000001,-0.064717136323451996,
6.4574999999999996,-0.062841974198818207,
6.46,-0.061014890670776367,
6.4625000000000004,-0.058202147483825684,
6.4649999999999999,-0.057432852685451508,
6.4675000000000002,-0.057312648743391037,
6.4699999999999998,-0.057889621704816818,
6.4725000000000001,-0.059091649949550629,
6.4749999999999996,-0.063130460679531097,
6.4775,-0.065486431121826172,
6.4800000000000004,-0.067698165774345398,
6.4824999999999999,-0.070871517062187195,
6.4850000000000003,-0.071544647216796875,
6.4874999999999998,-0.071712933480739594,
6.4900000000000002,-0.071448490023612976,
6.4924999999999997,-0.070030093193054199,
6.4950000000000001,-0.069020390510559082,
6.4974999999999996,-0.067674122750759125,
6.5,-0.065895125269889832,
6.5025000000000004,-0.060726404190063477,
6.5049999999999999,-0.05738477036356926,
6.5075000000000003,-0.053826771676540375,
6.5099999999999998,-0.050413012504577637,
6.5125000000000002,-0.045436620712280273,
6.5149999999999997,-0.044475000351667404,
6.5175000000000001,-0.044595204293727875,
6.5199999999999996,-0.045604906976222992,
6.5225,-0.048922501504421234,
6.5250000000000004,-0.050340890884399414,
6.5274999999999999,-0.051134228706359863,
6.5300000000000002,-0.051062107086181641,
6.5324999999999998,-0.048057042062282562,
6.5350000000000001,-0.045508742332458496,
6.5374999999999996,-0.04257579892873764,
6.54,-0.039594769477844238,
6.5425000000000004,-0.034978985786437988,
6.5449999999999999,-0.033873122185468674,
6.5475000000000003,-0.033897161483764648,
6.5499999999999998,-0.035027068108320236,
6.5525000000000002,-0.037094555795192719,
6.5549999999999997,-0.042960446327924728,
6.5575000000000001,-0.045869350433349609,
6.5599999999999996,-0.048105120658874512,
6.5625,-0.049619674682617188,
6.5650000000000004,-0.048706136643886566,
6.5674999999999999,-0.047047339379787445,
6.5700000000000003,-0.045003890991210938,
6.5724999999999998,-0.041493974626064301,
6.5750000000000002,-0.040724676102399826,
6.5774999999999997,-0.040724676102399826,
6.5800000000000001,-0.041325688362121582,
6.5824999999999996,-0.043224893510341644,
6.585,-0.043753784149885178,
6.5875000000000004,-0.043681662529706955,
6.5899999999999999,-0.04291236400604248,
6.5925000000000002,-0.039426486939191818,
6.5949999999999998,-0.037118595093488693,
6.5975000000000001,-0.034714542329311371,
6.5999999999999996,-0.032454729080200195,
6.6025,-0.029209256172180176,
6.6050000000000004,-0.028439959511160851,
6.6074999999999999,-0.028343796730041504,
6.6100000000000003,-0.028944810852408409,
6.6124999999999998,-0.031517148017883301,
6.6150000000000002,-0.03305574506521225,
6.6174999999999997,-0.034353934228420258,
6.6200000000000001,-0.035099189728498459,
6.6224999999999996,-0.034281812608242035,
6.625,-0.032695136964321136,
6.6275000000000004,-0.030675729736685753,
6.6299999999999999,-0.028656324371695518,
6.6325000000000003,-0.026180148124694824,
6.6349999999999998,-0.026468634605407715,
6.6375000000000002,-0.027935108169913292,
6.6399999999999997,-0.030435323715209961,
6.6425000000000001,-0.037479203194379807,
6.6449999999999996,-0.04120548814535141,
6.6475,-0.044595204293727875,
6.6500000000000004,-0.04735986515879631,
6.6524999999999999,-0.050028365105390549,
6.6550000000000002,-0.049763917922973633,
6.6574999999999998,-0.04832148551940918,
6.6600000000000001,-0.045725107192993164,
6.6624999999999996,-0.037623446434736252,
6.665,-0.032526850700378418,
6.6675000000000004,-0.027237933129072189,
6.6699999999999999,-0.022261541336774826,
6.6725000000000003,-0.014784932136535645,
6.6749999999999998,-0.013054013252258301,
6.6775000000000002,-0.012861689552664757,
6.6799999999999997,-0.014183918945491314,
6.6825000000000001,-0.020530622452497482,
6.6849999999999996,-0.02490600012242794,
6.6875,-0.029617946594953537,
6.6900000000000004,-0.034329891204833984,
6.6924999999999999,-0.042431555688381195,
6.6950000000000003,-0.045316420495510101,
6.6974999999999998,-0.04719158262014389,
6.7000000000000002,-0.047888755798339844,
6.7024999999999997,-0.046013593673706055,
6.7050000000000001,-0.043753784149885178,
6.7074999999999996,-0.041037201881408691,
6.71,-0.038200419396162033,
6.7125000000000004,-0.033248066902160645,
6.7149999999999999,-0.031445026397705078,
6.7175000000000002,-0.030050676316022873,
6.7199999999999998,-0.028824608772993088,
6.7225000000000001,-0.026396512985229492,
6.7249999999999996,-0.024881958961486816,
6.7275,-0.023247202858328819,
6.7300000000000004,-0.021732648834586143,
6.7324999999999999,-0.01983344554901123,
6.7350000000000003,-0.019929608330130577,
6.7374999999999998,-0.020771026611328125,
6.7400000000000002,-0.022237500175833702,
6.7424999999999997,-0.024112662300467491,
6.7450000000000001,-0.027959149330854416,
6.7474999999999996,-0.029425621032714844,
6.75,-0.030459364876151085,
6.7525000000000004,-0.031036337837576866,
6.7549999999999999,-0.030723810195922852,
6.7575000000000003,-0.030002593994140625,
6.7599999999999998,-0.028824608772993088,
6.7625000000000002,-0.024881958961486816,
6.7649999999999997,-0.02182881161570549,
6.7675000000000001,-0.018006365746259689,
6.7699999999999996,-0.013462702743709087,
6.7725,-0.0026444594841450453,
6.7750000000000004,0.0032214324455708265,
6.7774999999999999,0.009039243683218956,
6.7800000000000002,0.014520486816763878,
6.7824999999999998,0.023247202858328819,
6.7850000000000001,0.025867622345685959,
6.7874999999999996,0.026949446648359299,
6.79,0.026252269744873047,
6.7925000000000004,0.019448798149824142,
6.7949999999999999,0.013606945984065533,
6.7975000000000003,0.0065630674362182617,
6.7999999999999998,-0.0011779865017160773,
6.8025000000000002,-0.017188986763358116,
6.8049999999999997,-0.024713676422834396,
6.8075000000000001,-0.031661391258239746,
6.8099999999999996,-0.038032136857509613,
6.8125,-0.049018662422895432,
6.8150000000000004,-0.053538285195827484,
6.8174999999999999,-0.057264566421508789,
6.8200000000000003,-0.059860944747924805,
6.8224999999999998,-0.060534082353115082,
6.8250000000000002,-0.058226190507411957,
6.8274999999999997,-0.05413929745554924,
6.8300000000000001,-0.048730175942182541,
6.8324999999999996,-0.036132931709289551,
6.835,-0.030723810195922852,
6.8375000000000004,-0.027213891968131065,
6.8399999999999999,-0.026564797386527061,
6.8425000000000002,-0.037190716713666916,
6.8449999999999998,-0.049427352845668793,
6.8475000000000001,-0.06644805520772934,
6.8499999999999996,-0.087747976183891296,
6.8525,-0.13840138912200928,
6.8550000000000004,-0.16405265033245087,
6.8574999999999999,-0.18657863140106201,
6.8600000000000003,-0.20304641127586365,
6.8624999999999998,-0.20650824904441833,
6.8650000000000002,-0.18847784399986267,
6.8674999999999997,-0.15498936176300049,
6.8700000000000001,-0.10551393032073975,
6.8724999999999996,-0.040340028703212738,
6.875,0.12984296679496765,
6.8775000000000004,0.22862553596496582,
6.8799999999999999,0.33084592223167419,
6.8825000000000003,0.52391552925109863,
6.8849999999999998,0.60317718982696533,
6.8875000000000002,0.66349488496780396,
6.8899999999999997,0.70010864734649658,
6.8925000000000001,0.69075685739517212,
6.8949999999999996,0.64368546009063721,
6.8975,0.57115519046783447,
6.9000000000000004,0.47790190577507019,
6.9024999999999999,0.37015220522880554,
6.9050000000000002,0.14068524539470673,
6.9074999999999998,0.03368079662322998,
6.9100000000000001,-0.059884987771511078,
6.9124999999999996,-0.19117037951946259,
6.915,-0.22610127925872803,
6.9175000000000004,-0.24184784293174744,
6.9199999999999999,-0.24112662672996521,
6.9225000000000003,-0.22776007652282715,
6.9249999999999998,-0.17963092029094696,
6.9275000000000002,-0.15256127715110779,
6.9299999999999997,-0.12760719656944275,
6.9325000000000001,-0.10657171905040741,
6.9349999999999996,-0.0791655033826828,
6.9375,-0.072265863418579102,
6.9400000000000004,-0.068635746836662292,
6.9424999999999999,-0.067097149789333344,
6.9450000000000003,-0.066087447106838226,
6.9474999999999998,-0.065101787447929382,
6.9500000000000002,-0.063370868563652039,
6.9524999999999997,-0.060822568833827972,
6.9550000000000001,-0.053610406816005707,
6.9574999999999996,-0.049283109605312347,
6.96,-0.044450961053371429,
6.9625000000000004,-0.03921012207865715,
6.9649999999999999,-0.027550458908081055,
6.9675000000000002,-0.021323960274457932,
6.9699999999999998,-0.01521766185760498,
6.9725000000000001,-0.0045436620712280273,
6.9749999999999996,-0.00057697296142578125,
6.9775,0.0022357702255249023,
6.9800000000000004,0.0039907298050820827,
6.9824999999999999,0.004784067627042532,
6.9850000000000003,0.0045436620712280273,
6.9874999999999998,0.0040628514252603054,
6.9900000000000002,0.0035339593887329102,
6.9924999999999997,0.0031493108253926039,
6.9950000000000001,0.0029569864273071289,
6.9974999999999996,0.0031973919831216335,
7,0.0037743649445474148,78.651687622070312
7.0025000000000004,0.0047600269317626953,
7.0049999999999999,0.0080295410007238388,
7.0075000000000003,0.01031339168548584,
7.0099999999999998,0.012861689552664757,
7.0125000000000002,0.015506148338317871,
7.0149999999999997,0.02062678337097168,
7.0175000000000001,0.022862553596496582,
7.0199999999999996,0.024954080581665039,
7.0225,0.026901364326477051,
7.0250000000000004,0.030627649277448654,
7.0274999999999999,0.032526850700378418,
7.0300000000000002,0.034281812608242035,
7.0324999999999998,0.035892527550458908,
7.0350000000000001,0.038488905876874924,
7.0374999999999996,0.039594769477844238,
7.04,0.040892958641052246,
7.0425000000000004,0.042671959847211838,
7.0449999999999999,0.048682093620300293,
7.0475000000000003,0.053297877311706543,
7.0499999999999998,0.058875285089015961,
7.0525000000000002,0.065197944641113281,
7.0549999999999997,0.078852973878383636,
7.0575000000000001,0.085464119911193848,
7.0599999999999996,0.091690622270107269,
7.0625,0.097484394907951355,
7.0650000000000004,0.10808627307415009,
7.0674999999999999,0.11332710832357407,
7.0700000000000003,0.11873622983694077,
7.0724999999999998,0.12453000247478485,
7.0750000000000002,0.13765613734722137,
7.0774999999999997,0.14484426379203796,
7.0800000000000001,0.15232086181640625,
7.0824999999999996,0.15984556078910828,
7.085,0.1738131046295166,
7.0875000000000004,0.17970304191112518,
7.0899999999999999,0.18441498279571533,
7.0925000000000002,0.18790087103843689,
7.0949999999999998,0.19148290157318115,
7.0975000000000001,0.19205987453460693,
7.0999999999999996,0.19242048263549805,
7.1025,0.1930215060710907,
7.1050000000000004,0.1959063708782196,
7.1074999999999999,0.19826233386993408,
7.1100000000000003,0.20081064105033875,
7.1124999999999998,0.20304641127586365,
7.1150000000000002,0.20453691482543945,
7.1174999999999997,0.20292620360851288,
7.1200000000000001,0.19956052303314209,
7.1224999999999996,0.1945120096206665,
7.125,0.18037617206573486,
7.1275000000000004,0.17203411459922791,
7.1299999999999999,0.16311506927013397,
7.1325000000000003,0.14419516921043396,
7.1349999999999998,0.13421833515167236,
7.1375000000000002,0.12380878627300262,
7.1399999999999997,0.1130145788192749,
7.1425000000000001,0.10185977071523666,
7.1449999999999996,0.078732773661613464,
7.1475,0.067097149789333344,
7.1500000000000004,0.055485568940639496,
7.1524999999999999,0.044042270630598068,
7.1550000000000002,0.022261541336774826,
7.1574999999999998,0.012116432189941406,
7.1600000000000001,0.0027406215667724609,
7.1624999999999996,-0.013174216262996197,
7.165,-0.019569000229239464,
7.1675000000000004,-0.024930041283369064,
7.1699999999999999,-0.029473703354597092,
7.1725000000000003,-0.03339231014251709,
7.1749999999999998,-0.040243864059448242,
7.1775000000000002,-0.043609540909528732,
7.1799999999999997,-0.046999257057905197,
7.1825000000000001,-0.050413012504577637,
7.1849999999999996,-0.057048201560974121,
7.1875,-0.060101352632045746,
7.1900000000000004,-0.063010260462760925,
7.1924999999999999,-0.065774917602539062,
7.1950000000000003,-0.070919595658779144,
7.1974999999999998,-0.073275566101074219,
7.2000000000000002,-0.075343057513237,
7.2024999999999997,-0.078011557459831238,
7.2050000000000001,-0.078324079513549805,
7.2074999999999996,-0.077915392816066742,
7.21,-0.076881647109985352,
7.2125000000000004,-0.075415179133415222,
7.2149999999999999,-0.07209758460521698,
7.2175000000000002,-0.070799395442008972,
7.2199999999999998,-0.0699339359998703,
7.2225000000000001,-0.069789692759513855,
7.2249999999999996,-0.070462822914123535,
7.2275,-0.071544647216796875,
7.2300000000000004,-0.072987079620361328,
7.2324999999999999,-0.074669919908046722,
7.2350000000000003,-0.078179836273193359,
7.2374999999999998,-0.079694390296936035,
7.2400000000000002,-0.080776214599609375,
7.2424999999999997,-0.081208944320678711,
7.2450000000000001,-0.07995884120464325,
7.2474999999999996,-0.078348122537136078,
7.25,-0.076328717172145844,
7.2525000000000004,-0.074237190186977386,
7.2549999999999999,-0.070534944534301758,
7.2575000000000003,-0.06923675537109375,
7.2599999999999998,-0.068251095712184906,
7.2625000000000002,-0.066568255424499512,
7.2649999999999997,-0.065534517168998718,
7.2675000000000001,-0.06423632800579071,
7.2699999999999996,-0.062793895602226257,
7.2725,-0.06000518798828125,
7.2750000000000004,-0.058971446007490158,
7.2774999999999999,-0.058346390724182129,
7.2800000000000002,-0.058081947267055511,
7.2824999999999998,-0.057937704026699066,
7.2850000000000001,-0.057577095925807953,
7.2874999999999996,-0.057000122964382172,
7.29,-0.056254863739013672,
7.2925000000000004,-0.054860513657331467,
7.2949999999999999,-0.054668188095092773,
7.2975000000000003,-0.055124960839748383,
7.2999999999999998,-0.056278906762599945,
7.3025000000000002,-0.06000518798828125,
7.3049999999999997,-0.062096714973449707,
7.3075000000000001,-0.063851676881313324,
7.3099999999999996,-0.065005622804164886,
7.3125,-0.064861379563808441,
7.3150000000000004,-0.063394904136657715,
7.3174999999999999,-0.061062972992658615,
7.3200000000000003,-0.057961743324995041,
7.3224999999999998,-0.050100486725568771,
7.3250000000000002,-0.045749150216579437,
7.3274999999999997,-0.041421853005886078,
7.3300000000000001,-0.037431120872497559,
7.3324999999999996,-0.031493108719587326,
7.335,-0.029906433075666428,
7.3375000000000004,-0.029377540573477745,
7.3399999999999999,-0.029762189835309982,
7.3425000000000002,-0.032502811402082443,
7.3449999999999998,-0.034377973526716232,
7.3475000000000001,-0.036277174949645996,
7.3499999999999996,-0.03812829777598381,
7.3525,-0.041445892304182053,
7.3550000000000004,-0.042936407029628754,
7.3574999999999999,-0.044306717813014984,
7.3600000000000003,-0.045532785356044769,
7.3624999999999998,-0.047143500298261642,
7.3650000000000002,-0.047407947480678558,
7.3674999999999997,-0.04723966121673584,
7.3700000000000001,-0.046758852899074554,
7.3724999999999996,-0.045268338173627853,
7.375,-0.044450961053371429,
7.3775000000000004,-0.043753784149885178,
7.3799999999999999,-0.043128728866577148,
7.3825000000000003,-0.041806500405073166,
7.3849999999999998,-0.041013162583112717,
7.3875000000000002,-0.040075581520795822,
7.3899999999999997,-0.039113961160182953,
7.3925000000000001,-0.037575364112854004,
7.3949999999999996,-0.037190716713666916,
7.3975,-0.037142634391784668,
7.4000000000000004,-0.037310920655727386,
7.4024999999999999,-0.037551324814558029,
7.4050000000000002,-0.037286877632141113,
7.4074999999999998,-0.036565661430358887,
7.4100000000000001,-0.035459797829389572,
7.4124999999999996,-0.032791297882795334,
7.415,-0.031709473580121994,
7.4175000000000004,-0.031108459457755089,
7.4199999999999999,-0.031132500618696213,
7.4225000000000003,-0.032887458801269531,
7.4249999999999998,-0.034402012825012207,
7.4275000000000002,-0.036060810089111328,
7.4299999999999997,-0.037719607353210449,
7.4325000000000001,-0.040508311241865158,
7.4349999999999996,-0.041397809982299805,
7.4375,-0.041878622025251389,
7.4400000000000004,-0.041830539703369141,
7.4424999999999999,-0.039979420602321625,
7.4450000000000003,-0.038176380097866058,
7.4474999999999998,-0.035916566848754883,
7.4500000000000002,-0.03339231014251709,
7.4524999999999997,-0.028848648071289062,
7.4550000000000001,-0.027334094047546387,
7.4574999999999996,-0.026588838547468185,
7.46,-0.026709040626883507,
7.4625000000000004,-0.028920769691467285,
7.4649999999999999,-0.030627649277448654,
7.4675000000000002,-0.032382607460021973,
7.4699999999999998,-0.033969283103942871,
7.4725000000000001,-0.036156974732875824,
7.4749999999999996,-0.036469500511884689,
7.4775,-0.036229096353054047,
7.4800000000000004,-0.035363636910915375,
7.4824999999999999,-0.031565230339765549,
7.4850000000000003,-0.028800567612051964,
7.4874999999999998,-0.025675296783447266,
7.4900000000000002,-0.022477906197309494,
7.4924999999999997,-0.017309188842773438,
7.4950000000000001,-0.015818675979971886,
7.4974999999999996,-0.01521766185760498,
7.5,-0.015409986488521099,
7.5025000000000004,-0.016828378662467003,
7.5049999999999999,-0.017333230003714561,
7.5075000000000003,-0.01721302792429924,
7.5099999999999998,-0.01629948616027832,
7.5125000000000002,-0.012525121681392193,
7.5149999999999997,-0.010072986595332623,
7.5175000000000001,-0.0077170133590698242,
7.5199999999999996,-0.0058178110048174858,
7.5225,-0.0040147705003619194,
7.5250000000000004,-0.0042792162857949734,
7.5274999999999999,-0.0052408380433917046,
7.5300000000000002,-0.006707310676574707,
7.5324999999999998,-0.010241270065307617,
7.5350000000000001,-0.011611580848693848,
7.5374999999999996,-0.012212594971060753,
7.54,-0.01168370246887207,
7.5425000000000004,-0.0059139728546142578,
7.5449999999999999,-0.00048081082059070468,
7.5475000000000003,0.0064188241958618164,
7.5499999999999998,0.01430412195622921,
7.5525000000000002,0.030026635155081749,
7.5549999999999997,0.036229096353054047,
7.5575000000000001,0.040315985679626465,
7.5599999999999996,0.041854582726955414,
7.5625,0.03692626953125,
7.5650000000000004,0.030988257378339767,
7.5674999999999999,0.023463567718863487,
7.5700000000000003,0.015001296997070312,
7.5724999999999998,-0.0022357702255249023,
7.5750000000000002,-0.0099287433549761772,
7.5774999999999997,-0.016539892181754112,
7.5800000000000001,-0.021924972534179688,
7.5824999999999996,-0.028824608772993088,
7.585,-0.030675729736685753,
7.5875000000000004,-0.031781595200300217,
7.5899999999999999,-0.032430689781904221,
7.5925000000000002,-0.033897161483764648,
7.5949999999999998,-0.035027068108320236,
7.5975000000000001,-0.036493539810180664,
7.5999999999999996,-0.038176380097866058,
7.6025,-0.040868919342756271,
7.6050000000000004,-0.041469931602478027,
7.6074999999999999,-0.04137377068400383,
7.6100000000000003,-0.040820837020874023,
7.6124999999999998,-0.040340028703212738,
7.6150000000000002,-0.041830539703369141,
7.6174999999999997,-0.045580863952636719,
7.6200000000000001,-0.052264135330915451,
7.6224999999999996,-0.075751744210720062,
7.625,-0.092363759875297546,
7.6275000000000004,-0.11125962436199188,
7.6299999999999999,-0.13109306991100311,
7.6325000000000003,-0.16612014174461365,
7.6349999999999998,-0.17631332576274872,
7.6375000000000002,-0.17790000140666962,
7.6399999999999997,-0.16809146106243134,
7.6425000000000001,-0.1045282706618309,
7.6449999999999996,-0.047912798821926117,
7.6475,0.025290649384260178,
7.6500000000000004,0.11335115134716034,
7.6524999999999999,0.3190900981426239,
7.6550000000000002,0.42616665363311768,
7.6574999999999998,0.5273052453994751,
7.6600000000000001,0.61558210849761963,
