Data Set 1:Time(s),Data Set 1:EKG(mV),Data Set 1:Heart Rate(bpm)
0,-0.0088469190523028374,89.385475158691406
0.0025000000000000001,-0.0050965948030352592,
0.0050000000000000001,-0.0011539459228515625,
0.0074999999999999997,0.0027646622620522976,
0.01,0.0063947839662432671,
0.012500000000000001,0.0096162166446447372,
0.014999999999999999,0.014568567276000977,
0.017500000000000002,0.016395648941397667,
0.02,0.017982324585318565,
0.022499999999999999,0.020987391471862793,
0.025000000000000001,0.022574067115783691,
0.0275,0.024256905540823936,
0.029999999999999999,0.025963783264160156,
0.032500000000000001,0.029113095253705978,
0.035000000000000003,0.030339162796735764,
0.037499999999999999,0.031324826180934906,
0.040000000000000001,0.032070081681013107,
0.042500000000000003,0.033416353166103363,
0.044999999999999998,0.034450095146894455,
0.047500000000000001,0.036036770790815353,
0.050000000000000003,0.038320623338222504,
0.052499999999999998,0.045532785356044769,
0.055,0.050388973206281662,
0.057500000000000002,0.055966377258300781,
0.059999999999999998,0.062048636376857758,
0.0625,0.074766084551811218,
0.065000000000000002,0.080968543887138367,
0.067500000000000004,0.086882516741752625,
0.070000000000000007,0.092459917068481445,
0.072499999999999995,0.10260502994060516,
0.074999999999999997,0.10736505687236786,
0.077499999999999999,0.11202891916036606,
0.080000000000000002,0.11671682447195053,
0.082500000000000004,0.12623688578605652,
0.085000000000000006,0.13106903433799744,
0.087499999999999994,0.13585309684276581,
0.089999999999999997,0.14049291610717773,
0.092499999999999999,0.14895519614219666,
0.095000000000000001,0.15268146991729736,
0.097500000000000003,0.15604715049266815,
0.10000000000000001,0.1590762585401535,
0.10249999999999999,0.16424497961997986,
0.105,0.16640862822532654,
0.1075,0.16823570430278778,
0.11,0.16965410113334656,
0.1125,0.1706397533416748,
0.115,0.16982237994670868,
0.11749999999999999,0.16787509620189667,
0.12,0.16465365886688232,
0.1225,0.15409986674785614,
0.125,0.14676749706268311,
0.1275,0.13820907473564148,
0.13,0.12856881320476532,
0.13250000000000001,0.10688424110412598,
0.13500000000000001,0.095248624682426453,
0.13750000000000001,0.083420678973197937,
0.14000000000000001,0.071520611643791199,
0.14249999999999999,0.048249363899230957,
0.14499999999999999,0.037142634391784668,
0.14749999999999999,0.026540756225585938,
0.14999999999999999,0.016539892181754112,
0.1525,-0.0012741487007588148,
0.155,-0.0089671220630407333,
0.1575,-0.015818675979971886,
0.16,-0.02182881161570549,
0.16250000000000001,-0.031420987099409103,
0.16500000000000001,-0.035195350646972656,
0.16750000000000001,-0.038392744958400726,
0.17000000000000001,-0.04120548814535141,
0.17249999999999999,-0.046133797615766525,
0.17499999999999999,-0.048489771783351898,
0.17749999999999999,-0.050845742225646973,
0.17999999999999999,-0.053273838013410568,
0.1825,-0.058105986565351486,
0.185,-0.060389839112758636,
0.1875,-0.062505409121513367,
0.19,-0.064356528222560883,
0.1925,-0.067121192812919617,
0.19500000000000001,-0.068010687828063965,
0.19750000000000001,-0.068659782409667969,
0.20000000000000001,-0.069116555154323578,
0.20250000000000001,-0.069765649735927582,
0.20499999999999999,-0.070102214813232422,
0.20749999999999999,-0.070486865937709808,
0.20999999999999999,-0.070919595658779144,
0.21249999999999999,-0.071736976504325867,
0.215,-0.072001419961452484,
0.2175,-0.072073541581630707,
0.22,-0.071929298341274261,
0.2225,-0.070847474038600922,
0.22500000000000001,-0.06998201459646225,
0.22750000000000001,-0.068996354937553406,
0.23000000000000001,-0.067986652255058289,
0.23250000000000001,-0.066351890563964844,
0.23499999999999999,-0.06599128246307373,
0.23749999999999999,-0.06599128246307373,
0.23999999999999999,-0.06644805520772934,
0.24249999999999999,-0.068611703813076019,
0.245,-0.070174336433410645,
0.2475,-0.071833133697509766,
0.25,-0.073491930961608887,
0.2525,-0.076112352311611176,
0.255,-0.076809525489807129,
0.25750000000000001,-0.077001854777336121,
0.26000000000000001,-0.07671336829662323,
0.26250000000000001,-0.07493436336517334,
0.26500000000000001,-0.073708295822143555,
0.26750000000000002,-0.072458192706108093,
0.27000000000000002,-0.071328282356262207,
0.27250000000000002,-0.069789692759513855,
0.27500000000000002,-0.069477163255214691,
0.27750000000000002,-0.069405041635036469,
0.28000000000000003,-0.069525241851806641,
0.28249999999999997,-0.06998201459646225,
0.28499999999999998,-0.070174336433410645,
0.28749999999999998,-0.070222422480583191,
0.28999999999999998,-0.070174336433410645,
0.29249999999999998,-0.069813728332519531,
0.29499999999999998,-0.069573327898979187,
0.29749999999999999,-0.069356963038444519,
0.29999999999999999,-0.069188676774501801,
0.30249999999999999,-0.068924233317375183,
0.30499999999999999,-0.068804025650024414,
0.3075,-0.068635746836662292,
0.31,-0.068395338952541351,
0.3125,-0.067674122750759125,
0.315,-0.067241393029689789,
0.3175,-0.066808663308620453,
0.32000000000000001,-0.066424012184143066,
0.32250000000000001,-0.065943203866481781,
0.32500000000000001,-0.065823003649711609,
0.32750000000000001,-0.065798960626125336,
0.33000000000000002,-0.065726839005947113,
0.33250000000000002,-0.065197944641113281,
0.33500000000000002,-0.064500771462917328,
0.33750000000000002,-0.063418947160243988,
0.34000000000000002,-0.061880350112915039,
0.34250000000000003,-0.057408809661865234,
0.34499999999999997,-0.054547987878322601,
0.34749999999999998,-0.051446758210659027,
0.34999999999999998,-0.048201285302639008,
0.35249999999999998,-0.042022865265607834,
0.35499999999999998,-0.039426486939191818,
0.35749999999999998,-0.037407081574201584,
0.35999999999999999,-0.036060810089111328,
0.36249999999999999,-0.035628080368041992,
0.36499999999999999,-0.036517582833766937,
0.36749999999999999,-0.038056176155805588,
0.37,-0.040075581520795822,
0.3725,-0.044763486832380295,
0.375,-0.046999257057905197,
0.3775,-0.048874419182538986,
0.38,-0.050196647644042969,
0.38250000000000001,-0.050581298768520355,
0.38500000000000001,-0.049499474465847015,
0.38750000000000001,-0.047576230019330978,
0.39000000000000001,-0.044859647750854492,
0.39250000000000002,-0.037695568054914474,
0.39500000000000002,-0.033632718026638031,
0.39750000000000002,-0.029569864273071289,
0.40000000000000002,-0.025747418403625488,
0.40250000000000002,-0.01983344554901123,
0.40500000000000003,-0.018150608986616135,
0.40749999999999997,-0.017501514405012131,
0.40999999999999998,-0.017982324585318565,
0.41249999999999998,-0.022045176476240158,
0.41499999999999998,-0.0253627710044384,
0.41749999999999998,-0.029257338494062424,
0.41999999999999998,-0.03351251408457756,
0.42249999999999999,-0.042070947587490082,
0.42499999999999999,-0.046013593673706055,
0.42749999999999999,-0.049571596086025238,
0.42999999999999999,-0.052744947373867035,
0.4325,-0.058033864945173264,
0.435,-0.060365796089172363,
0.4375,-0.062625609338283539,
0.44,-0.064885422587394714,
0.4425,-0.069573327898979187,
0.44500000000000001,-0.071881219744682312,
0.44750000000000001,-0.074020825326442719,
0.45000000000000001,-0.075775787234306335,
0.45250000000000001,-0.077362462878227234,
0.45500000000000002,-0.076857611536979675,
0.45750000000000002,-0.075343057513237,
0.46000000000000002,-0.072890922427177429,
0.46250000000000002,-0.066279768943786621,
0.46500000000000002,-0.063082382082939148,
0.46750000000000003,-0.060846608132123947,
0.46999999999999997,-0.060341756790876389,
0.47249999999999998,-0.067553922533988953,
0.47499999999999998,-0.076400838792324066,
0.47749999999999998,-0.088998079299926758,
0.47999999999999998,-0.10508120059967041,
0.48249999999999998,-0.14417111873626709,
0.48499999999999999,-0.16426901519298553,
0.48749999999999999,-0.18205901980400085,
0.48999999999999999,-0.19523322582244873,
0.49249999999999999,-0.19782960414886475,
0.495,-0.18273214995861053,
0.4975,-0.15431623160839081,
0.5,-0.11166831105947495,
0.50249999999999995,0.015794634819030762,
0.505,0.097532473504543304,
0.50749999999999995,0.18739601969718933,
0.51000000000000001,0.28105795383453369,
0.51249999999999996,0.45876562595367432,
0.51500000000000001,0.53136807680130005,
0.51749999999999996,0.58589202165603638,
0.52000000000000002,0.61784189939498901,
0.52249999999999996,0.60382628440856934,
0.52500000000000002,0.55745208263397217,
0.52749999999999997,0.48787873983383179,
0.53000000000000003,0.39981824159622192,
0.53249999999999997,0.19316574931144714,
0.53500000000000003,0.088517270982265472,
0.53749999999999998,-0.0081737842410802841,
0.54000000000000004,-0.091570422053337097,
0.54249999999999998,-0.20525813102722168,
0.54500000000000004,-0.23362597823143005,
0.54749999999999999,-0.24461250007152557,
0.55000000000000004,-0.24110257625579834,
0.55249999999999999,-0.20569086074829102,
0.55500000000000005,-0.18150608241558075,
0.5575,-0.15744149684906006,
0.56000000000000005,-0.13575693964958191,
0.5625,-0.10433594882488251,
0.56499999999999995,-0.094863973557949066,
0.5675,-0.088757678866386414,
0.56999999999999995,-0.085007354617118835,
0.57250000000000001,-0.080728136003017426,
0.57499999999999996,-0.078732773661613464,
0.57750000000000001,-0.076256595551967621,
0.57999999999999996,-0.073251530528068542,
0.58250000000000002,-0.066327854990959167,
0.58499999999999996,-0.062938138842582703,
0.58750000000000002,-0.059933066368103027,
0.58999999999999997,-0.057480931282043457,
0.59250000000000003,-0.054403744637966156,
0.59499999999999997,-0.053586363792419434,
0.59750000000000003,-0.053081512451171875,
0.59999999999999998,-0.052672825753688812,
0.60250000000000004,-0.05151887983083725,
0.60499999999999998,-0.050581298768520355,
0.60750000000000004,-0.049307148903608322,
0.60999999999999999,-0.047720473259687424,
0.61250000000000004,-0.043681662529706955,
0.61499999999999999,-0.04137377068400383,
0.61750000000000005,-0.038993757218122482,
0.62,-0.036565661430358887,
0.62250000000000005,-0.031997960060834885,
0.625,-0.02997855469584465,
0.62749999999999995,-0.028175514191389084,
0.63,-0.02661287784576416,
0.63249999999999995,-0.024208825081586838,
0.63500000000000001,-0.023271244019269943,
0.63749999999999996,-0.022357702255249023,
0.64000000000000001,-0.02137204073369503,
0.64249999999999996,-0.018775662407279015,
0.64500000000000002,-0.016972621902823448,
0.64749999999999996,-0.014736851677298546,
0.65000000000000002,-0.012068351730704308,
0.65249999999999997,-0.0056735677644610405,
0.65500000000000003,-0.0021636486053466797,
0.65749999999999997,0.0013943513622507453,
0.66000000000000003,0.0048802299425005913,
0.66249999999999998,0.011106729507446289,
0.66500000000000004,0.013775229454040527,
0.66749999999999998,0.016155242919921875,
0.67000000000000004,0.01829485222697258,
0.67249999999999999,0.022405784577131271,
0.67500000000000004,0.024665594100952148,
0.67749999999999999,0.027261972427368164,
0.68000000000000005,0.030267041176557541,
0.6825,0.037911932915449142,
0.68500000000000005,0.042551755905151367,
0.6875,0.047648351639509201,
0.68999999999999995,0.053153634071350098,
0.6925,0.064861379563808441,
0.69499999999999995,0.070847474038600922,
0.69750000000000001,0.076833568513393402,
0.69999999999999996,0.08269946277141571,
0.70250000000000001,0.094070635735988617,
0.70499999999999996,0.099551878869533539,
0.70750000000000002,0.10484080016613007,
0.70999999999999996,0.10998547077178955,
0.71250000000000002,0.11972188949584961,
0.71499999999999997,0.12424151599407196,
0.71750000000000003,0.1284966915845871,
0.71999999999999997,0.1324152946472168,
0.72250000000000003,0.13917069137096405,
0.72499999999999998,0.14191131293773651,
0.72750000000000004,0.14417111873626709,
0.72999999999999998,0.1459260880947113,
0.73250000000000004,0.147705078125,
0.73499999999999999,0.14753679931163788,
0.73750000000000004,0.14657518267631531,
0.73999999999999999,0.14470002055168152,
0.74250000000000005,0.13775229454040527,
0.745,0.13255953788757324,
0.74750000000000005,0.1261647641658783,
0.75,0.11859198659658432,
0.75249999999999995,0.10020097345113754,
0.755,0.089671216905117035,
0.75749999999999995,0.078492365777492523,
0.76000000000000001,0.066832706332206726,
0.76249999999999996,0.043008528649806976,
0.76500000000000001,0.031204622238874435,
0.76749999999999996,0.019689202308654785,
0.77000000000000002,0.0086305541917681694,
0.77249999999999996,-0.011659662239253521,
0.77500000000000002,-0.02074698731303215,
0.77749999999999997,-0.028992891311645508,
0.78000000000000003,-0.036421418190002441,
0.78249999999999997,-0.048778258264064789,
0.78500000000000003,-0.053754650056362152,
0.78749999999999998,-0.058081947267055511,
0.79000000000000004,-0.061856310814619064,
0.79249999999999998,-0.068251095712184906,
0.79500000000000004,-0.071160003542900085,
0.79749999999999999,-0.074044868350028992,
0.80000000000000004,-0.076929733157157898,
0.80249999999999999,-0.082771584391593933,
0.80500000000000005,-0.085632406175136566,
0.8075,-0.088324949145317078,
0.81000000000000005,-0.090777084231376648,
0.8125,-0.094503365457057953,
0.81499999999999995,-0.095705389976501465,
0.8175,-0.096474692225456238,
0.81999999999999995,-0.096835300326347351,
0.82250000000000001,-0.096642971038818359,
0.82499999999999996,-0.096234284341335297,
0.82750000000000001,-0.095777511596679688,
0.82999999999999996,-0.095272660255432129,
0.83250000000000002,-0.094287000596523285,
0.83499999999999996,-0.093830227851867676,
0.83750000000000002,-0.093373462557792664,
0.83999999999999997,-0.092964768409729004,
0.84250000000000003,-0.092219516634941101,
0.84499999999999997,-0.091955065727233887,
0.84750000000000003,-0.091786786913871765,
0.84999999999999998,-0.091762743890285492,
0.85250000000000004,-0.092171430587768555,
0.85499999999999998,-0.092604160308837891,
0.85750000000000004,-0.093133054673671722,
0.85999999999999999,-0.09368598461151123,
0.86250000000000004,-0.094599530100822449,
0.86499999999999999,-0.094791851937770844,
0.86750000000000005,-0.094719730317592621,
0.87,-0.094359122216701508,
0.87250000000000005,-0.092868611216545105,
0.875,-0.091882944107055664,
0.87749999999999995,-0.090849205851554871,
0.88,-0.089935660362243652,
0.88249999999999995,-0.088757678866386414,
0.88500000000000001,-0.088661514222621918,
0.88749999999999996,-0.088925957679748535,
0.89000000000000001,-0.08947889506816864,
0.89249999999999996,-0.091089606285095215,
0.89500000000000002,-0.091882944107055664,
0.89749999999999996,-0.092508003115653992,
0.90000000000000002,-0.092796489596366882,
0.90249999999999997,-0.092291638255119324,
0.90500000000000003,-0.091498300433158875,
0.90749999999999997,-0.090416476130485535,
0.91000000000000003,-0.089166365563869476,
0.91249999999999998,-0.086786352097988129,
0.91500000000000004,-0.085896849632263184,
0.91749999999999998,-0.085343919694423676,
0.92000000000000004,-0.085127554833889008,
0.92249999999999999,-0.085704527795314789,
0.92500000000000004,-0.08632957935333252,
0.92749999999999999,-0.087050795555114746,
0.93000000000000005,-0.08769989013671875,
0.9325,-0.088348984718322754,
0.93500000000000005,-0.088132619857788086,
0.9375,-0.087459489703178406,
0.93999999999999995,-0.08628150075674057,
0.9425,-0.082555219531059265,
0.94499999999999995,-0.080079041421413422,
0.94750000000000001,-0.077362462878227234,
0.94999999999999996,-0.074501633644104004,
0.95250000000000001,-0.068948268890380859,
0.95499999999999996,-0.066544219851493835,
0.95750000000000002,-0.064572893083095551,
0.95999999999999996,-0.063130460679531097,
0.96250000000000002,-0.062048636376857758,
0.96499999999999997,-0.062385201454162598,
0.96750000000000003,-0.06320258229970932,
0.96999999999999997,-0.064404606819152832,
0.97250000000000003,-0.067217350006103516,
0.97499999999999998,-0.068443417549133301,
0.97750000000000004,-0.069284841418266296,
0.97999999999999998,-0.069549284875392914,
0.98250000000000004,-0.06781836599111557,
0.98499999999999999,-0.06565471738576889,
0.98750000000000004,-0.062649652361869812,
0.98999999999999999,-0.058851242065429688,
0.99250000000000005,-0.049499474465847015,
0.995,-0.044378839433193207,
0.99750000000000005,-0.039258204400539398,
1,-0.034450095146894455,90.5660400390625
1.0024999999999999,-0.026709040626883507,
1.0049999999999999,-0.024184783920645714,
1.0075000000000001,-0.022742351517081261,
1.01,-0.022429823875427246,
1.0125,-0.025218527764081955,
1.0149999999999999,-0.028079351410269737,
1.0175000000000001,-0.031709473580121994,
1.02,-0.035868488252162933,
1.0225,-0.04490773007273674,
1.0249999999999999,-0.04935523122549057,
1.0275000000000001,-0.053538285195827484,
1.03,-0.057360731065273285,
1.0325,-0.063755512237548828,
1.0349999999999999,-0.06644805520772934,
1.0375000000000001,-0.068924233317375183,
1.04,-0.071280203759670258,
1.0425,-0.075944066047668457,
1.0449999999999999,-0.078227922320365906,
1.0475000000000001,-0.080343484878540039,
1.05,-0.082074403762817383,
1.0525,-0.083396635949611664,
1.0549999999999999,-0.082531176507472992,
1.0575000000000001,-0.080463692545890808,
1.0600000000000001,-0.077242255210876465,
1.0625,-0.068707868456840515,
1.0649999999999999,-0.0646209716796875,
1.0674999999999999,-0.061808228492736816,
1.0700000000000001,-0.06120721623301506,
1.0725,-0.070342622697353363,
1.075,-0.081281065940856934,
1.0774999999999999,-0.096691057085990906,
1.0800000000000001,-0.11604368686676025,
1.0825,-0.16179284453392029,
1.085,-0.18434286117553711,
1.0874999999999999,-0.20338296890258789,
1.0900000000000001,-0.2160523384809494,
1.0925,-0.21095573902130127,
1.095,-0.188261479139328,
1.0974999999999999,-0.149844691157341,
1.1000000000000001,-0.095104381442070007,
1.1025,0.059764783829450607,
1.105,0.15496532618999481,
1.1074999999999999,0.25656065344810486,
1.1100000000000001,0.35911759734153748,
1.1125,0.54225844144821167,
1.115,0.61031723022460938,
1.1174999999999999,0.65539324283599854,
1.1200000000000001,0.67356789112091064,
1.1225000000000001,0.62325102090835571,
1.125,0.55721163749694824,
1.1274999999999999,0.46910306811332703,
1.1299999999999999,0.36503157019615173,
1.1325000000000001,0.13830523192882538,
1.135,0.03060360811650753,
1.1375,-0.064572893083095551,
1.1399999999999999,-0.14251232147216797,
1.1425000000000001,-0.2376888245344162,
1.145,-0.25535863637924194,
1.1475,-0.25617599487304688,
1.1499999999999999,-0.24396340548992157,
1.1525000000000001,-0.19751708209514618,
1.155,-0.17126481235027313,
1.1575,-0.14708003401756287,
1.1599999999999999,-0.12678980827331543,
1.1625000000000001,-0.10039329528808594,
1.165,-0.093517705798149109,
1.1675,-0.08952697366476059,
1.1699999999999999,-0.087267160415649414,
1.1725000000000001,-0.083901487290859222,
1.175,-0.081497430801391602,
1.1775,-0.078300043940544128,
1.1799999999999999,-0.074429512023925781,
1.1825000000000001,-0.065774917602539062,
1.1850000000000001,-0.061615906655788422,
1.1875,-0.057913661003112793,
1.1899999999999999,-0.054740309715270996,
1.1924999999999999,-0.049884121865034103,
1.1950000000000001,-0.047960877418518066,
1.1975,-0.0461578369140625,
1.2,-0.044378839433193207,
1.2024999999999999,-0.040556393563747406,
1.2050000000000001,-0.038512945175170898,
1.2075,-0.036469500511884689,
1.21,-0.03447413444519043,
1.2124999999999999,-0.030892094597220421,
1.2150000000000001,-0.029377540573477745,
1.2175,-0.028031270951032639,
1.22,-0.026829242706298828,
1.2224999999999999,-0.024497311562299728,
1.2250000000000001,-0.023247202858328819,
1.2275,-0.02182881161570549,
1.23,-0.020194053649902344,
1.2324999999999999,-0.016275446861982346,
1.2350000000000001,-0.013967554084956646,
1.2375,-0.011515418998897076,
1.24,-0.0089430809020996094,
1.2424999999999999,-0.0036060810089111328,
1.2450000000000001,-0.00093758106231689453,
1.2475000000000001,0.0016828378429636359,
1.25,0.0042070946656167507,
1.2524999999999999,0.0089430809020996094,
1.2549999999999999,0.011178851127624512,
1.2575000000000001,0.013366540893912315,
1.26,0.015506148338317871,
1.2625,0.019977688789367676,
1.2649999999999999,0.022477906197309494,
1.2675000000000001,0.025218527764081955,
1.27,0.028343796730041504,
1.2725,0.035916566848754883,
1.2749999999999999,0.040436189621686935,
1.2775000000000001,0.045460663735866547,
1.28,0.050941906869411469,
1.2825,0.062938138842582703,
1.2849999999999999,0.06923675537109375,
1.2875000000000001,0.075583457946777344,
1.29,0.081858038902282715,
1.2925,0.093782149255275726,
1.2949999999999999,0.099311470985412598,
1.2975000000000001,0.1045282706618309,
1.3,0.10940849781036377,
1.3025,0.11839966475963593,
1.3049999999999999,0.12255867570638657,
1.3075000000000001,0.12659749388694763,
1.3100000000000001,0.13051609694957733,
1.3125,0.13816098868846893,
1.3149999999999999,0.14188727736473083,
1.3174999999999999,0.14551739394664764,
1.3200000000000001,0.14897923171520233,
1.3225,0.15513360500335693,
1.325,0.1575857400894165,
1.3274999999999999,0.15941283106803894,
1.3300000000000001,0.16051869094371796,
1.3325,0.15984556078910828,
1.335,0.15785019099712372,
1.3374999999999999,0.15465280413627625,
1.3400000000000001,0.15018126368522644,
1.3425,0.13758401572704315,
1.345,0.12960255146026611,
1.3474999999999999,0.12063543498516083,
1.3500000000000001,0.11077880859375,
1.3525,0.089046165347099304,
1.355,0.077434584498405457,
1.3574999999999999,0.065534517168998718,
1.3600000000000001,0.053490202873945236,
1.3625,0.02969006821513176,
1.365,0.018342932686209679,
1.3674999999999999,0.0075968108139932156,
1.3700000000000001,-0.0023559730034321547,
1.3725000000000001,-0.019496878609061241,
1.375,-0.026588838547468185,
1.3774999999999999,-0.032815337181091309,
1.3799999999999999,-0.038272541016340256,
1.3825000000000001,-0.047696433961391449,
1.385,-0.052071809768676758,
1.3875,-0.05647122859954834,
1.3899999999999999,-0.060966812074184418,
1.3925000000000001,-0.07027050107717514,
1.395,-0.07493436336517334,
1.3975,-0.079357825219631195,
1.3999999999999999,-0.083396635949611664,
1.4025000000000001,-0.089647173881530762,
1.405,-0.091714665293693542,
1.4075,-0.0930609330534935,
1.4099999999999999,-0.093758106231689453,
1.4125000000000001,-0.093854270875453949,
1.415,-0.093541741371154785,
1.4175,-0.093205176293849945,
1.4199999999999999,-0.092940732836723328,
1.4225000000000001,-0.092844568192958832,
1.425,-0.092988811433315277,
1.4275,-0.093205176293849945,
1.4299999999999999,-0.093469619750976562,
1.4325000000000001,-0.093902349472045898,
1.4350000000000001,-0.094070635735988617,
1.4375,-0.094190835952758789,
1.4399999999999999,-0.094311043620109558,
1.4424999999999999,-0.094599530100822449,
1.4450000000000001,-0.09476780891418457,
1.4475,-0.094936095178127289,
1.45,-0.095104381442070007,
1.4524999999999999,-0.095152460038661957,
1.4550000000000001,-0.094984173774719238,
1.4575,-0.094671651721000671,
1.46,-0.094214878976345062,
1.4624999999999999,-0.092964768409729004,
1.4650000000000001,-0.092267595231533051,
1.4675,-0.09164254367351532,
1.47,-0.091113649308681488,
1.4724999999999999,-0.090488597750663757,
1.4750000000000001,-0.090392433106899261,
1.4775,-0.090416476130485535,
1.48,-0.090536676347255707,
1.4824999999999999,-0.090704962611198425,
1.4850000000000001,-0.090632840991020203,
1.4875,-0.090416476130485535,
1.49,-0.090007781982421875,
1.4924999999999999,-0.088613435626029968,
1.4950000000000001,-0.087675854563713074,
1.4975000000000001,-0.086642108857631683,
1.5,-0.085584327578544617,
1.5024999999999999,-0.083588957786560059,
1.5049999999999999,-0.082723498344421387,
1.5075000000000001,-0.08200228214263916,
1.51,-0.081401273608207703,
1.5125,-0.080535814166069031,
1.5149999999999999,-0.080199241638183594,
1.5175000000000001,-0.079886719584465027,
1.52,-0.07950206845998764,
1.5225,-0.078396201133728027,
1.5249999999999999,-0.077578827738761902,
1.5275000000000001,-0.076569125056266785,
1.53,-0.075367093086242676,
1.5325,-0.072554349899291992,
1.5349999999999999,-0.07106383889913559,
1.5375000000000001,-0.069621406495571136,
1.54,-0.068323217332363129,
1.5425,-0.06639997661113739,
1.5449999999999999,-0.065847039222717285,
1.5475000000000001,-0.065582595765590668,
1.55,-0.065534517168998718,
1.5525,-0.065823003649711609,
1.5549999999999999,-0.065967246890068054,
1.5575000000000001,-0.065943203866481781,
1.5600000000000001,-0.065678760409355164,
1.5625,-0.064212284982204437,
1.5649999999999999,-0.062938138842582703,
1.5674999999999999,-0.061303377151489258,
1.5700000000000001,-0.059380136430263519,
1.5725,-0.054908595979213715,
1.575,-0.052504539489746094,
1.5774999999999999,-0.050124526023864746,
1.5800000000000001,-0.047840677201747894,
1.5825,-0.044042270630598068,
1.585,-0.042695999145507812,
1.5874999999999999,-0.041782461106777191,
1.5900000000000001,-0.041421853005886078,
1.5925,-0.04228731244802475,
1.595,-0.043465297669172287,
1.5974999999999999,-0.044979851692914963,
1.6000000000000001,-0.046686731278896332,
1.6025,-0.049787960946559906,
1.605,-0.050653420388698578,
1.6074999999999999,-0.050749581307172775,
1.6100000000000001,-0.049812000244855881,
1.6125,-0.044547121971845627,
1.615,-0.040219824761152267,
1.6174999999999999,-0.035027068108320236,
1.6200000000000001,-0.029257338494062424,
1.6225000000000001,-0.017669796943664551,
1.625,-0.01276552677154541,
1.6274999999999999,-0.0089671220630407333,
1.6299999999999999,-0.0066351890563964844,
1.6325000000000001,-0.0069477162323892117,
1.635,-0.0095200538635253906,
1.6375,-0.013462702743709087,
1.6399999999999999,-0.018415054306387901,
1.6425000000000001,-0.029906433075666428,
1.645,-0.035700201988220215,
1.6475,-0.041133366525173187,
1.6499999999999999,-0.046013593673706055,
1.6525000000000001,-0.053898893296718597,
1.655,-0.057000122964382172,
1.6575,-0.059692662209272385,
1.6599999999999999,-0.062096714973449707,
1.6625000000000001,-0.066640377044677734,
1.665,-0.06890019029378891,
1.6675,-0.071160003542900085,
1.6699999999999999,-0.073299609124660492,
1.6725000000000001,-0.076617203652858734,
1.675,-0.077338419854640961,
1.6775,-0.077146098017692566,
1.6799999999999999,-0.07596810907125473,
1.6825000000000001,-0.070558987557888031,
1.6850000000000001,-0.066832706332206726,
1.6875,-0.063082382082939148,
1.6899999999999999,-0.06000518798828125,
1.6924999999999999,-0.059428215026855469,
1.6950000000000001,-0.063659355044364929,
1.6975,-0.071833133697509766,
1.7,-0.084214016795158386,
1.7024999999999999,-0.12063543498516083,
1.7050000000000001,-0.14270465075969696,
1.7075,-0.16508638858795166,
1.71,-0.18549680709838867,
1.7124999999999999,-0.20946523547172546,
1.7150000000000001,-0.20737370848655701,
1.7175,-0.19244453310966492,
1.72,-0.16268233954906464,
1.7224999999999999,-0.054812431335449219,
1.7250000000000001,0.022525986656546593,
1.7275,0.112918421626091,
1.73,0.2128789871931076,
1.7324999999999999,0.42176723480224609,
1.7350000000000001,0.51881891489028931,
1.7375,0.60250401496887207,
1.74,0.66678845882415771,
1.7424999999999999,0.71854770183563232,
1.7450000000000001,0.70082986354827881,
1.7475000000000001,0.6540229320526123,
1.75,0.58089160919189453,
1.7524999999999999,0.37661910057067871,
1.7549999999999999,0.25934934616088867,
1.7575000000000001,0.14224788546562195,
1.76,0.032647054642438889,
1.7625,-0.14111797511577606,
1.7649999999999999,-0.19823829829692841,
1.7675000000000001,-0.23425102233886719,
1.77,-0.25057455897331238,
1.7725,-0.23691952228546143,
1.7749999999999999,-0.21521091461181641,
1.7775000000000001,-0.18917500972747803,
1.78,-0.16249001026153564,
1.7825,-0.11705338954925537,
1.7849999999999999,-0.1008019894361496,
1.7875000000000001,-0.08907020092010498,
1.79,-0.081160865724086761,
1.7925,-0.073035165667533875,
1.7949999999999999,-0.070823431015014648,
1.7975000000000001,-0.068876147270202637,
1.8,-0.066808663308620453,
1.8025,-0.061736106872558594,
1.8049999999999999,-0.058899324387311935,
1.8075000000000001,-0.056062541902065277,
1.8100000000000001,-0.053297877311706543,
1.8125,-0.048057042062282562,
1.8149999999999999,-0.045484703034162521,
1.8174999999999999,-0.042816203087568283,
1.8200000000000001,-0.040027499198913574,
1.8225,-0.033993326127529144,
1.825,-0.03094017505645752,
1.8274999999999999,-0.028055310249328613,
1.8300000000000001,-0.025482973083853722,
1.8325,-0.021804770454764366,
1.835,-0.020722946152091026,
1.8374999999999999,-0.020097892731428146,
1.8400000000000001,-0.019737284630537033,
1.8425,-0.019136270508170128,
1.845,-0.018463134765625,
1.8474999999999999,-0.01738131046295166,
1.8500000000000001,-0.015746554359793663,
1.8525,-0.01108268927782774,
1.855,-0.0081978244706988335,
1.8574999999999999,-0.0051687164232134819,
1.8600000000000001,-0.0021396081428974867,
1.8625,0.0034618377685546875,
1.865,0.0059139728546142578,
1.8674999999999999,0.0081978244706988335,
1.8700000000000001,0.010337432846426964,
1.8725000000000001,0.014712810516357422,
1.875,0.017188986763358116,
1.8774999999999999,0.019977688789367676,
1.8799999999999999,0.02307891845703125,
1.8825000000000001,0.030194919556379318,
1.885,0.034041404724121094,
1.8875,0.03796001523733139,
1.8899999999999999,0.041830539703369141,
1.8925000000000001,0.049138866364955902,
1.895,0.052504539489746094,
1.8975,0.055750012397766113,
1.8999999999999999,0.05892336368560791,
1.9025000000000001,0.065630674362182617,
1.905,0.069380998611450195,
1.9075,0.07351597398519516,
1.9099999999999999,0.07813175767660141,
1.9125000000000001,0.088685557246208191,
1.915,0.094527408480644226,
1.9175,0.10060966014862061,
1.9199999999999999,0.10681211948394775,
1.9225000000000001,0.11909683793783188,
1.925,0.12501081824302673,
1.9275,0.13068437576293945,
1.9299999999999999,0.13609349727630615,
1.9325000000000001,0.14616648852825165,
1.9350000000000001,0.15083035826683044,
1.9375,0.15522977709770203,
1.9399999999999999,0.15938878059387207,
1.9424999999999999,0.16674518585205078,
1.9450000000000001,0.16987046599388123,
1.9475,0.17251491546630859,
1.95,0.17463049292564392,
1.9524999999999999,0.17693838477134705,
1.9550000000000001,0.17696242034435272,
1.9575,0.17612099647521973,
1.96,0.17431795597076416,
1.9624999999999999,0.16744236648082733,
1.9650000000000001,0.16227364540100098,
1.9675,0.15590290725231171,
1.97,0.148354172706604,
1.9724999999999999,0.13010740280151367,
1.9750000000000001,0.11967381089925766,
1.9775,0.10861515998840332,
1.98,0.097099743783473969,
1.9824999999999999,0.073636174201965332,
1.9850000000000001,0.062024593353271484,
1.9875,0.050677459686994553,
1.99,0.039714973419904709,
1.9924999999999999,0.019040107727050781,
1.9950000000000001,0.0094238920137286186,
1.9975000000000001,0.00026444596005603671,
2,-0.0084141893312335014,92.664093017578125
2.0024999999999999,-0.024232864379882812,
2.0049999999999999,-0.031324826180934906,
2.0074999999999998,-0.037863850593566895,
2.0099999999999998,-0.043753784149885178,
2.0125000000000002,-0.053658485412597656,
2.0150000000000001,-0.057649217545986176,
2.0175000000000001,-0.06103893369436264,
2.02,-0.063875719904899597,
2.0225,-0.068203017115592957,
2.0249999999999999,-0.069813728332519531,
2.0274999999999999,-0.071184039115905762,
2.0299999999999998,-0.072337985038757324,
2.0325000000000002,-0.074309311807155609,
2.0350000000000001,-0.075198814272880554,
2.0375000000000001,-0.076040230691432953,
2.04,-0.076857611536979675,
2.0425,-0.078324079513549805,
2.0449999999999999,-0.078973174095153809,
2.0474999999999999,-0.079478025436401367,
2.0499999999999998,-0.079862676560878754,
2.0525000000000002,-0.080127120018005371,
2.0550000000000002,-0.080006919801235199,
2.0575000000000001,-0.079718433320522308,
2.0600000000000001,-0.079285703599452972,
2.0625,-0.078276000916957855,
2.0649999999999999,-0.077819228172302246,
2.0674999999999999,-0.077458620071411133,
2.0699999999999998,-0.077242255210876465,
2.0724999999999998,-0.077314376831054688,
2.0750000000000002,-0.077602863311767578,
2.0775000000000001,-0.077963471412658691,
2.0800000000000001,-0.078420244157314301,
2.0825,-0.079189538955688477,
2.085,-0.079429946839809418,
2.0874999999999999,-0.079526111483573914,
2.0899999999999999,-0.079478025436401367,
2.0924999999999998,-0.078949138522148132,
2.0950000000000002,-0.078564487397670746,
2.0975000000000001,-0.078155800700187683,
2.1000000000000001,-0.077771149575710297,
2.1025,-0.077194176614284515,
2.105,-0.077025890350341797,
2.1074999999999999,-0.076953768730163574,
2.1099999999999999,-0.076905690133571625,
2.1124999999999998,-0.076737403869628906,
2.1150000000000002,-0.076472960412502289,
2.1175000000000002,-0.076040230691432953,
2.1200000000000001,-0.075391136109828949,
2.1225000000000001,-0.073395773768424988,
2.125,-0.072121620178222656,
2.1274999999999999,-0.070751309394836426,
2.1299999999999999,-0.069356963038444519,
2.1324999999999998,-0.066976949572563171,
2.1349999999999998,-0.066159568727016449,
2.1375000000000002,-0.065630674362182617,
2.1400000000000001,-0.065414309501647949,
2.1425000000000001,-0.065606638789176941,
2.145,-0.065823003649711609,
2.1475,-0.065943203866481781,
2.1499999999999999,-0.065871082246303558,
2.1524999999999999,-0.064885422587394714,
2.1549999999999998,-0.06394784152507782,
2.1575000000000002,-0.062769852578639984,
2.1600000000000001,-0.061471663415431976,
2.1625000000000001,-0.059019528329372406,
2.165,-0.058105986565351486,
2.1675,-0.057480931282043457,
2.1699999999999999,-0.05721648782491684,
2.1724999999999999,-0.05755305290222168,
2.1749999999999998,-0.057985782623291016,
2.1775000000000002,-0.058466594666242599,
2.1800000000000002,-0.058875285089015961,
2.1825000000000001,-0.059019528329372406,
2.1850000000000001,-0.058682959526777267,
2.1875,-0.058033864945173264,
2.1899999999999999,-0.057096283882856369,
2.1924999999999999,-0.054716270416975021,
2.1949999999999998,-0.053418081253767014,
2.1974999999999998,-0.052167974412441254,
2.2000000000000002,-0.051038067787885666,
2.2025000000000001,-0.049499474465847015,
2.2050000000000001,-0.049138866364955902,
2.2075,-0.049066744744777679,
2.21,-0.049259066581726074,
2.2124999999999999,-0.050268769264221191,
2.2149999999999999,-0.050965946167707443,
2.2174999999999998,-0.051639080047607422,
2.2200000000000002,-0.052216053009033203,
2.2225000000000001,-0.052648782730102539,
2.2250000000000001,-0.052360296249389648,
2.2275,-0.051639080047607422,
2.23,-0.050509177148342133,
2.2324999999999999,-0.047023296356201172,
2.2349999999999999,-0.04478752613067627,
2.2374999999999998,-0.042359434068202972,
2.2400000000000002,-0.039835177361965179,
2.2425000000000002,-0.03476262092590332,
2.2450000000000001,-0.032382607460021973,
2.2475000000000001,-0.03014683723449707,
2.25,-0.02815147303044796,
2.2524999999999999,-0.025026202201843262,
2.2549999999999999,-0.02399246022105217,
2.2574999999999998,-0.023439526557922363,
2.2599999999999998,-0.023367404937744141,
2.2625000000000002,-0.02490600012242794,
2.2650000000000001,-0.026420554146170616,
2.2675000000000001,-0.028295716270804405,
2.27,-0.03031512163579464,
2.2725,-0.033632718026638031,
2.2749999999999999,-0.034281812608242035,
2.2774999999999999,-0.033849082887172699,
2.2799999999999998,-0.032070081681013107,
2.2825000000000002,-0.024184783920645714,
2.2850000000000001,-0.018270811066031456,
2.2875000000000001,-0.011419257149100304,
2.29,-0.0040628514252603054,
2.2925,0.0100008649751544,
2.2949999999999999,0.015650391578674316,
2.2974999999999999,0.019737284630537033,
2.2999999999999998,0.021949013695120811,
2.3025000000000002,0.020362338051199913,
2.3050000000000002,0.01675625704228878,
2.3075000000000001,0.011659662239253521,
2.3100000000000001,0.0054812431335449219,
2.3125,-0.0083180274814367294,
2.3149999999999999,-0.015097459778189659,
2.3174999999999999,-0.021396081894636154,
2.3199999999999998,-0.026949446648359299,
2.3224999999999998,-0.035628080368041992,
2.3250000000000002,-0.038825474679470062,
2.3275000000000001,-0.041445892304182053,
2.3300000000000001,-0.043585501611232758,
2.3325,-0.047095417976379395,
2.335,-0.048634015023708344,
2.3374999999999999,-0.050052404403686523,
2.3399999999999999,-0.051254432648420334,
2.3424999999999998,-0.052576661109924316,
2.3450000000000002,-0.052312217652797699,
2.3475000000000001,-0.051278471946716309,
2.3500000000000001,-0.04940330982208252,
2.3525,-0.043585501611232758,
2.355,-0.040364068001508713,
2.3574999999999999,-0.037647485733032227,
2.3599999999999999,-0.036229096353054047,
2.3624999999999998,-0.04046022891998291,
2.3650000000000002,-0.047576230019330978,
2.3675000000000002,-0.058658920228481293,
2.3700000000000001,-0.073660217225551605,
2.3725000000000001,-0.11306266486644745,
2.375,-0.13491551578044891,
2.3774999999999999,-0.15559038519859314,
2.3799999999999999,-0.17261108756065369,
2.3824999999999998,-0.1845351904630661,
2.3849999999999998,-0.17386119067668915,
2.3875000000000002,-0.14893114566802979,
2.3900000000000001,-0.10808627307415009,
2.3925000000000001,0.023006796836853027,
2.395,0.11104325950145721,
2.3975,0.21037876605987549,
2.3999999999999999,0.31656584143638611,
2.4024999999999999,0.52641570568084717,
2.4049999999999998,0.61702454090118408,
2.4075000000000002,0.68936252593994141,
2.4100000000000001,0.73778015375137329,
2.4125000000000001,0.74799740314483643,
2.415,0.70744097232818604,
2.4175,0.6387331485748291,
2.4199999999999999,0.54646551609039307,
2.4224999999999999,0.31788808107376099,
2.4249999999999998,0.19722859561443329,
2.4275000000000002,0.082795619964599609,
2.4300000000000002,-0.018727581948041916,
2.4325000000000001,-0.16482195258140564,
2.4350000000000001,-0.20557066798210144,
2.4375,-0.22564451396465302,
2.4399999999999999,-0.22788028419017792,
2.4424999999999999,-0.19530534744262695,
2.4449999999999998,-0.16941368579864502,
2.4474999999999998,-0.14251232147216797,
2.4500000000000002,-0.11763036251068115,
2.4525000000000001,-0.080559849739074707,
2.4550000000000001,-0.069212719798088074,
2.4575,-0.061880350112915039,
2.46,-0.057456891983747482,
2.4624999999999999,-0.052648782730102539,
2.4649999999999999,-0.050340890884399414,
2.4674999999999998,-0.04735986515879631,
2.4700000000000002,-0.043585501611232758,
2.4725000000000001,-0.034353934228420258,
2.4750000000000001,-0.029617946594953537,
2.4775,-0.025218527764081955,
2.48,-0.021420121192932129,
2.4824999999999999,-0.015794634819030762,
2.4849999999999999,-0.013823310844600201,
2.4874999999999998,-0.012188553810119629,
2.4900000000000002,-0.010649959556758404,
2.4925000000000002,-0.0073804459534585476,
2.4950000000000001,-0.0054812431335449219,
2.4975000000000001,-0.0034137568436563015,
2.5,-0.0012501081218943,
2.5024999999999999,0.0029810271225869656,
2.5049999999999999,0.0048802299425005913,
2.5074999999999998,0.0065871081314980984,
2.5099999999999998,0.0080776214599609375,
2.5125000000000002,0.010673999786376953,
2.5150000000000001,0.011972188949584961,
2.5175000000000001,0.013342499732971191,
2.52,0.01492917537689209,
2.5225,0.018847784027457237,
2.5249999999999999,0.021179717034101486,
2.5274999999999999,0.023728013038635254,
2.5299999999999998,0.02644459530711174,
2.5325000000000002,0.032070081681013107,
2.5350000000000001,0.034834742546081543,
2.5375000000000001,0.037551324814558029,
2.54,0.04017174243927002,
2.5425,0.045220255851745605,
2.5449999999999999,0.047720473259687424,
2.5474999999999999,0.050292812287807465,
2.5499999999999998,0.05293726921081543,
2.5525000000000002,0.058658920228481293,
2.5550000000000002,0.061760149896144867,
2.5575000000000001,0.06502966582775116,
2.5600000000000001,0.068467460572719574,
2.5625,0.075847908854484558,
2.5649999999999999,0.079766511917114258,
2.5674999999999999,0.083853408694267273,
2.5699999999999998,0.088084541261196136,
2.5724999999999998,0.097003579139709473,
2.5750000000000002,0.101643405854702,
2.5775000000000001,0.10637938976287842,
2.5800000000000001,0.11121153831481934,
2.5825,0.12094795703887939,
2.585,0.12587627768516541,
2.5874999999999999,0.1308286190032959,
2.5899999999999999,0.13582906126976013,
2.5924999999999998,0.1461184024810791,
2.5950000000000002,0.15140733122825623,
2.5975000000000001,0.15676836669445038,
2.6000000000000001,0.1621534526348114,
2.6025,0.17270724475383759,
2.605,0.17761151492595673,
2.6074999999999999,0.18210709095001221,
2.6099999999999999,0.1860257089138031,
2.6124999999999998,0.19181947410106659,
2.6150000000000002,0.19359847903251648,
2.6175000000000002,0.19458413124084473,
2.6200000000000001,0.19484858214855194,
2.6225000000000001,0.19340614974498749,
2.625,0.19179543852806091,
2.6274999999999999,0.18965582549571991,
2.6299999999999999,0.18691520392894745,
2.6324999999999998,0.17951071262359619,
2.6349999999999998,0.17467856407165527,
2.6375000000000002,0.16898095607757568,
2.6400000000000001,0.16236981749534607,
2.6425000000000001,0.14631073176860809,
2.645,0.13698300719261169,
2.6475,0.12695810198783875,
2.6499999999999999,0.11633217334747314,
2.6524999999999999,0.09414275735616684,
2.6549999999999998,0.082843706011772156,
2.6575000000000002,0.071664854884147644,
2.6600000000000001,0.060678325593471527,
2.6625000000000001,0.039739012718200684,
2.665,0.02997855469584465,
2.6675,0.020771026611328125,
2.6699999999999999,0.012236635200679302,
2.6724999999999999,-0.0026925406418740749,
2.6749999999999998,-0.0090632839128375053,
2.6775000000000002,-0.014712810516357422,
2.6800000000000002,-0.019737284630537033,
2.6825000000000001,-0.028271675109863281,
2.6850000000000001,-0.032021999359130859,
2.6875,-0.035531919449567795,
2.6899999999999999,-0.038873553276062012,
2.6924999999999999,-0.045003890991210938,
2.6949999999999998,-0.047672390937805176,
2.6974999999999998,-0.049980282783508301,
2.7000000000000002,-0.051783323287963867,
2.7025000000000001,-0.053778689354658127,
2.7050000000000001,-0.053922932595014572,
2.7075,-0.053586363792419434,
2.71,-0.052865147590637207,
2.7124999999999999,-0.050869785249233246,
2.7149999999999999,-0.049860082566738129,
2.7174999999999998,-0.048946540802717209,
2.7200000000000002,-0.048249363899230957,
2.7225000000000001,-0.047431986778974533,
2.7250000000000001,-0.047287743538618088,
2.7275,-0.047263704240322113,
2.73,-0.047311782836914062,
2.7324999999999999,-0.047504108399152756,
2.7349999999999999,-0.047624312341213226,
2.7374999999999998,-0.047768555581569672,
2.7400000000000002,-0.047960877418518066,
2.7425000000000002,-0.048489771783351898,
2.7450000000000001,-0.048826336860656738,
2.7475000000000001,-0.049210987985134125,
2.75,-0.049619674682617188,
2.7524999999999999,-0.050292812287807465,
2.7549999999999999,-0.050509177148342133,
2.7574999999999998,-0.05060533806681633,
2.7599999999999998,-0.050533216446638107,
2.7625000000000002,-0.049860082566738129,
2.7650000000000001,-0.049235027283430099,
2.7675000000000001,-0.048393607139587402,
2.77,-0.047383904457092285,
2.7725,-0.044979851692914963,
2.7749999999999999,-0.043681662529706955,
2.7774999999999999,-0.042383473366498947,
2.7799999999999998,-0.041181445121765137,
2.7825000000000002,-0.039162039756774902,
2.7850000000000001,-0.038416784256696701,
2.7875000000000001,-0.03783981129527092,
2.79,-0.037407081574201584,
2.7925,-0.036685865372419357,
2.7949999999999999,-0.036229096353054047,
2.7974999999999999,-0.035652123391628265,
2.7999999999999998,-0.034906864166259766,
2.8025000000000002,-0.032839380204677582,
2.8050000000000002,-0.031589269638061523,
2.8075000000000001,-0.030291080474853516,
2.8100000000000001,-0.029040973633527756,
2.8125,-0.027021568268537521,
2.8149999999999999,-0.026396512985229492,
2.8174999999999999,-0.026035904884338379,
2.8199999999999998,-0.02598782442510128,
2.8224999999999998,-0.026540756225585938,
2.8250000000000002,-0.026997527107596397,
2.8275000000000001,-0.027478337287902832,
2.8300000000000001,-0.027887027710676193,
2.8325,-0.028247635811567307,
2.835,-0.028079351410269737,
2.8374999999999999,-0.027670662850141525,
2.8399999999999999,-0.027021568268537521,
2.8424999999999998,-0.025098323822021484,
2.8450000000000002,-0.023896297439932823,
2.8475000000000001,-0.022622149437665939,
2.8500000000000001,-0.021347999572753906,
2.8525,-0.019088190048933029,
2.855,-0.018222730606794357,
2.8574999999999999,-0.017597675323486328,
2.8599999999999999,-0.017237067222595215,
2.8624999999999998,-0.01721302792429924,
2.8650000000000002,-0.017453432083129883,
2.8675000000000002,-0.017741918563842773,
2.8700000000000001,-0.018030405044555664,
2.8725000000000001,-0.018246769905090332,
2.875,-0.018102526664733887,
2.8774999999999999,-0.017765959724783897,
2.8799999999999999,-0.017309188842773438,
2.8824999999999998,-0.016179284080862999,
2.8849999999999998,-0.015626352280378342,
2.8875000000000002,-0.015145540237426758,
2.8900000000000001,-0.014712810516357422,
2.8925000000000001,-0.013991594314575195,
2.895,-0.013606945984065533,
2.8975,-0.013150176033377647,
2.8999999999999999,-0.012549161911010742,
2.9024999999999999,-0.010866324417293072,
2.9049999999999998,-0.0097604598850011826,
2.9075000000000002,-0.0085103511810302734,
2.9100000000000001,-0.0071881217882037163,
2.9125000000000001,-0.004399418830871582,
2.915,-0.0030531487427651882,
2.9175,-0.0018030405044555664,
2.9199999999999999,-0.00074525678064674139,
2.9224999999999999,0.00069717568112537265,
2.9249999999999998,0.00096162164118140936,
2.9275000000000002,0.00086545944213867188,
2.9300000000000002,0.00040868920041248202,
2.9325000000000001,-0.0013703107833862305,
2.9350000000000001,-0.0024521350860595703,
2.9375,-0.0034377973061054945,
2.9399999999999999,-0.0040628514252603054,
2.9424999999999999,-0.0032695136032998562,
2.9449999999999998,-0.001466472982428968,
2.9474999999999998,0.001466472982428968,
2.9500000000000002,0.0055052838288247585,
2.9525000000000001,0.016371607780456543,
2.9550000000000001,0.022646188735961914,
2.9575,0.028968852013349533,
2.96,0.034906864166259766,
2.9624999999999999,0.044090352952480316,
2.9649999999999999,0.046734809875488281,
2.9674999999999998,0.047816634178161621,
2.9700000000000002,0.047263704240322113,
2.9725000000000001,0.041686296463012695,
2.9750000000000001,0.036998391151428223,
2.9775,0.031396947801113129,
2.98,0.025146406143903732,
2.9824999999999999,0.011779865249991417,
2.9849999999999999,0.0052167973481118679,
2.9874999999999998,-0.00098566222004592419,
2.9900000000000002,-0.006659229751676321,
2.9925000000000002,-0.015794634819030762,
2.9950000000000001,-0.019136270508170128,
2.9975000000000001,-0.021636486053466797,
3,-0.023391446098685265,93.02325439453125
3.0024999999999999,-0.02490600012242794,
3.0049999999999999,-0.024881958961486816,
3.0074999999999998,-0.02444922924041748,
3.0099999999999998,-0.023655891418457031,
3.0125000000000002,-0.020891230553388596,
3.0150000000000001,-0.018871825188398361,
3.0175000000000001,-0.01646777056157589,
3.02,-0.013775229454040527,
3.0225,-0.0087507572025060654,
3.0249999999999999,-0.0074285268783569336,
3.0274999999999999,-0.0077410540543496609,
3.0299999999999998,-0.010505716316401958,
3.0325000000000002,-0.025795500725507736,
3.0350000000000001,-0.03904183954000473,
3.0375000000000001,-0.055870216339826584,
3.04,-0.075535379350185394,
3.0425,-0.11772652715444565,
3.0449999999999999,-0.1361415833234787,
3.0474999999999999,-0.14936387538909912,
3.0499999999999998,-0.15462875366210938,
3.0525000000000002,-0.13068437576293945,
3.0550000000000002,-0.097219944000244141,
3.0575000000000001,-0.047792594879865646,
3.0600000000000001,0.017549594864249229,
3.0625,0.18967986106872559,
3.0649999999999999,0.2900010347366333,
3.0674999999999999,0.39354366064071655,
3.0699999999999998,0.49439370632171631,
3.0724999999999998,0.66258132457733154,
3.0750000000000002,0.7178264856338501,
3.0775000000000001,0.74739634990692139,
3.0800000000000001,0.7484060525894165,
3.0825,0.6636391282081604,
3.085,0.58286291360855103,
3.0874999999999999,0.4832148551940918,
3.0899999999999999,0.37154656648635864,
3.0924999999999998,0.14263252913951874,
3.0950000000000002,0.039859216660261154,
3.0975000000000001,-0.047407947480678558,
3.1000000000000001,-0.11551479995250702,
3.1025,-0.18967986106872559,
3.105,-0.19826233386993408,
3.1074999999999999,-0.19198775291442871,
3.1099999999999999,-0.17496705055236816,
3.1124999999999998,-0.12585222721099854,
3.1150000000000002,-0.10099431127309799,
3.1175000000000002,-0.079333782196044922,
3.1200000000000001,-0.062144797295331955,
3.1225000000000001,-0.041614174842834473,
3.125,-0.036830108612775803,
3.1274999999999999,-0.03413756936788559,
3.1299999999999999,-0.032406650483608246,
3.1324999999999998,-0.02815147303044796,
3.1349999999999998,-0.024713676422834396,
3.1375000000000002,-0.020314257591962814,
3.1400000000000001,-0.015241703018546104,
3.1425000000000001,-0.0046398243866860867,
3.145,0.00012020270514767617,
3.1475,0.0041349730454385281,
3.1499999999999999,0.0073083243332803249,
3.1524999999999999,0.011347135528922081,
3.1549999999999998,0.012549161911010742,
3.1575000000000002,0.013486742973327637,
3.1600000000000001,0.014376243576407433,
3.1625000000000001,0.016636054962873459,
3.165,0.018150608986616135,
3.1675,0.019929608330130577,
3.1699999999999999,0.021924972534179688,
3.1724999999999999,0.026228230446577072,
3.1749999999999998,0.028391879051923752,
3.1775000000000002,0.030459364876151085,
3.1800000000000002,0.032382607460021973,
3.1825000000000001,0.03584444522857666,
3.1850000000000001,0.037431120872497559,
3.1875,0.038969717919826508,
3.1899999999999999,0.040508311241865158,
3.1924999999999999,0.043849945068359375,
3.1949999999999998,0.045725107192993164,
3.1974999999999998,0.047768555581569672,
3.2000000000000002,0.050004325807094574,
3.2025000000000001,0.054908595979213715,
3.2050000000000001,0.057529013603925705,
3.2075,0.060221552848815918,
3.21,0.062938138842582703,
3.2124999999999999,0.068299174308776855,
3.2149999999999999,0.070919595658779144,
3.2174999999999998,0.073491930961608887,
3.2200000000000002,0.07601618766784668,
3.2225000000000001,0.081112787127494812,
3.2250000000000001,0.08378128707408905,
3.2275,0.08661806583404541,
3.23,0.089671216905117035,
3.2324999999999999,0.096715092658996582,
3.2349999999999999,0.10075390338897705,
3.2374999999999998,0.10515332221984863,
3.2400000000000002,0.10991334915161133,
3.2425000000000002,0.12015461921691895,
3.2450000000000001,0.12549161911010742,
3.2475000000000001,0.13087670505046844,
3.25,0.13621370494365692,
3.2524999999999999,0.14664730429649353,
3.2549999999999999,0.15167176723480225,
3.2574999999999998,0.15662412345409393,
3.2599999999999998,0.16148030757904053,
3.2625000000000002,0.17102441191673279,
3.2650000000000001,0.17571231722831726,
3.2675000000000001,0.18023192882537842,
3.27,0.18458327651023865,
3.2725,0.19225220382213593,
3.2749999999999999,0.19540151953697205,
3.2774999999999999,0.19794981181621552,
3.2799999999999998,0.19987305998802185,
3.2825000000000002,0.20184437930583954,
3.2850000000000001,0.20196458697319031,
3.2875000000000001,0.20155589282512665,
3.29,0.20069043338298798,
3.2925,0.1976853609085083,
3.2949999999999999,0.19549767673015594,
3.2974999999999999,0.19278109073638916,
3.2999999999999998,0.18936733901500702,
3.3025000000000002,0.18008768558502197,
3.3050000000000002,0.17405351996421814,
3.3075000000000001,0.16698560118675232,
3.3100000000000001,0.15895605087280273,
3.3125,0.14034867286682129,
3.3149999999999999,0.130083367228508,
3.3174999999999999,0.11943340301513672,
3.3199999999999998,0.10859112441539764,
3.3224999999999998,0.087050795555114746,
3.3250000000000002,0.076641246676445007,
3.3275000000000001,0.066616341471672058,
3.3300000000000001,0.057072244584560394,
3.3325,0.039618812501430511,
3.335,0.031829677522182465,
3.3374999999999999,0.024689635261893272,
3.3399999999999999,0.018222730606794357,
3.3424999999999998,0.0072842836380004883,
3.3450000000000002,0.0027646622620522976,
3.3475000000000001,-0.0012501081218943,
3.3500000000000001,-0.0048081083223223686,
3.3525,-0.011010567657649517,
3.355,-0.013823310844600201,
3.3574999999999999,-0.016515851020812988,
3.3599999999999999,-0.019112229347229004,
3.3624999999999998,-0.02399246022105217,
3.3650000000000002,-0.026156108826398849,
3.3675000000000002,-0.028055310249328613,
3.3700000000000001,-0.029617946594953537,
3.3725000000000001,-0.031661391258239746,
3.375,-0.032094120979309082,
3.3774999999999999,-0.032214324921369553,
3.3799999999999999,-0.032094120979309082,
3.3824999999999998,-0.031348865479230881,
3.3849999999999998,-0.030964216217398643,
3.3875000000000002,-0.030627649277448654,
3.3900000000000001,-0.030459364876151085,
3.3925000000000001,-0.03060360811650753,
3.395,-0.030892094597220421,
3.3975,-0.031276743859052658,
3.3999999999999999,-0.031685434281826019,
3.4024999999999999,-0.032214324921369553,
3.4049999999999998,-0.032238364219665527,
3.4075000000000002,-0.032046042382717133,
3.4100000000000001,-0.031661391258239746,
3.4125000000000001,-0.030435323715209961,
3.415,-0.029786229133605957,
3.4175,-0.0292332973331213,
3.4199999999999999,-0.028872689232230186,
3.4224999999999999,-0.029016932472586632,
3.4249999999999998,-0.02952178381383419,
3.4275000000000002,-0.030243000015616417,
3.4300000000000002,-0.03106037899851799,
3.4325000000000001,-0.032478772103786469,
3.4350000000000001,-0.032791297882795334,
3.4375,-0.032695136964321136,
3.4399999999999999,-0.032118164002895355,
3.4424999999999999,-0.029641985893249512,
3.4449999999999998,-0.027862986549735069,
3.4474999999999998,-0.025867622345685959,
3.4500000000000002,-0.023776095360517502,
3.4525000000000001,-0.019785365089774132,
3.4550000000000001,-0.018006365746259689,
3.4575,-0.016443729400634766,
3.46,-0.015097459778189659,
3.4624999999999999,-0.012909770011901855,
3.4649999999999999,-0.011996230110526085,
3.4674999999999998,-0.011178851127624512,
3.4700000000000002,-0.010409554466605186,
3.4725000000000001,-0.0091113653033971786,
3.4750000000000001,-0.0085584325715899467,
3.4775,-0.0080776214599609375,
3.48,-0.0076448917388916016,
3.4824999999999999,-0.006827513687312603,
3.4849999999999999,-0.0063467025756835938,
3.4874999999999998,-0.0057216486893594265,
3.4900000000000002,-0.0049523515626788139,
3.4925000000000002,-0.0027406215667724609,
3.4950000000000001,-0.0013703107833862305,
3.4975000000000001,9.6162162662949413e-05,
3.5,0.0015626351814717054,
3.5024999999999999,0.0040628514252603054,
3.5049999999999999,0.0048802299425005913,
3.5074999999999998,0.0053369998931884766,
3.5099999999999998,0.0053850812837481499,
3.5125000000000002,0.0044715404510498047,
3.5150000000000001,0.0037262837868183851,
3.5175000000000001,0.0029569864273071289,
3.52,0.0023319325409829617,
3.5225,0.0018992027034983039,
3.5249999999999999,0.0022117297630757093,
3.5274999999999999,0.0028848648071289062,
3.5299999999999998,0.0038224458694458008,
3.5325000000000002,0.0060822567902505398,
3.5350000000000001,0.007140040397644043,
3.5375000000000001,0.0080295410007238388,
3.54,0.0086065139621496201,
3.5425,0.0087988376617431641,
3.5449999999999999,0.0084141893312335014,
3.5474999999999999,0.0077650947496294975,
3.5499999999999998,0.006923675537109375,
3.5525000000000002,0.0049523515626788139,
3.5550000000000002,0.0039907298050820827,
3.5575000000000001,0.0031252703629434109,
3.5600000000000001,0.002476175781339407,
3.5625,0.0020194053649902344,
3.5649999999999999,0.0023319325409829617,
3.5674999999999999,0.0030771892052143812,
3.5699999999999998,0.0042792162857949734,
3.5724999999999998,0.0079574193805456161,
3.5750000000000002,0.010337432846426964,
3.5775000000000001,0.012933811172842979,
3.5800000000000001,0.015626352280378342,
3.5825,0.020819108933210373,
3.585,0.023030837997794151,
3.5874999999999999,0.024857919663190842,
3.5899999999999999,0.026228230446577072,
3.5924999999999998,0.027286013588309288,
3.5950000000000002,0.026949446648359299,
3.5975000000000001,0.026059946045279503,
3.6000000000000001,0.02461751364171505,
3.6025,0.020578702911734581,
3.605,0.018318891525268555,
3.6074999999999999,0.016203325241804123,
3.6099999999999999,0.014520486816763878,
3.6124999999999998,0.013679067604243755,
3.6150000000000002,0.015049378387629986,
3.6175000000000002,0.01783808134496212,
3.6200000000000001,0.022069215774536133,
3.6225000000000001,0.034353934228420258,
3.625,0.041758418083190918,
3.6274999999999999,0.049379270523786545,
3.6299999999999999,0.056687593460083008,
3.6324999999999998,0.068227052688598633,
3.6349999999999998,0.071544647216796875,
3.6375000000000002,0.072866879403591156,
3.6400000000000001,0.072073541581630707,
3.6425000000000001,0.064596936106681824,
3.645,0.058514676988124847,
3.6475,0.051422715187072754,
3.6499999999999999,0.043801866471767426,
3.6524999999999999,0.028968852013349533,
3.6549999999999998,0.022550027817487717,
3.6575000000000002,0.017188986763358116,
3.6600000000000001,0.012981891632080078,
3.6625000000000001,0.0080054998397827148,
3.665,0.006875594612210989,
3.6675,0.0063226623460650444,
3.6699999999999999,0.0060341758653521538,
3.6724999999999999,0.0053610405884683132,
3.6749999999999998,0.0046879053115844727,
3.6775000000000002,0.0038224458694458008,
3.6800000000000002,0.0028848648071289062,
3.6825000000000001,0.0017068784218281507,
3.6850000000000001,0.0019232432823628187,
3.6875,0.0028367838822305202,
3.6899999999999999,0.0044475002214312553,
3.6924999999999999,0.0083420677110552788,
3.6949999999999998,0.0095440950244665146,
3.6974999999999998,0.0092075271531939507,
3.7000000000000002,0.0065630674362182617,
3.7025000000000001,-0.0083180274814367294,
3.7050000000000001,-0.021251838654279709,
3.7075,-0.037623446434736252,
3.71,-0.056639514863491058,
3.7124999999999999,-0.097147822380065918,
3.7149999999999999,-0.1146974191069603,
3.7174999999999998,-0.12724658846855164,
3.7200000000000002,-0.12698213756084442,
3.7225000000000001,-0.10933637619018555,
3.7250000000000001,-0.077458620071411133,
3.7275,-0.030267041176557541,
3.73,0.032382607460021973,
3.7324999999999999,0.19891142845153809,
3.7349999999999999,0.29714107513427734,
3.7374999999999998,0.39955377578735352,
3.7400000000000002,0.50057214498519897,
3.7425000000000002,0.67364001274108887,
3.7450000000000001,0.73347687721252441,
3.7475000000000001,0.76872032880783081,
3.75,0.77598059177398682,
3.7524999999999999,0.70330601930618286,
3.7549999999999999,0.62721771001815796,
3.7574999999999998,0.5306708812713623,
3.7599999999999998,0.42025268077850342,
3.7625000000000002,0.18804511427879333,
3.7650000000000001,0.081088744103908539,
3.7675000000000001,-0.011491378769278526,
3.77,-0.085464119911193848,
3.7725,-0.17109653353691101,
3.7749999999999999,-0.18429479002952576,
3.7774999999999999,-0.18140992522239685,
3.7799999999999998,-0.14390668272972107,
3.7825000000000002,-0.11779864877462387,
3.7850000000000001,-0.091690622270107269,
3.7875000000000001,-0.068203017115592957,
3.79,-0.034377973526716232,
3.7925,-0.024425189942121506,
3.7949999999999999,-0.018222730606794357,
3.7974999999999999,-0.014664730057120323,
3.7999999999999998,-0.010938446037471294,
3.8025000000000002,-0.0089671220630407333,
3.8050000000000002,-0.0062505407258868217,
3.8075000000000001,-0.0026204190216958523,
3.8100000000000001,0.0067794322967529297,
3.8125,0.011900067329406738,
3.8149999999999999,0.016900500282645226,
3.8174999999999999,0.021468203514814377,
3.8199999999999998,0.028680365532636642,
3.8224999999999998,0.03122866153717041,
3.8250000000000002,0.033103823661804199,
3.8275000000000001,0.034450095146894455,
3.8300000000000001,0.036060810089111328,
3.8325,0.036613743752241135,
3.835,0.037166677415370941,
3.8374999999999999,0.037887893617153168,
3.8399999999999999,0.040195785462856293,
3.8424999999999998,0.041902661323547363,
3.8450000000000002,0.043970149010419846,
3.8475000000000001,0.046374201774597168,
3.8500000000000001,0.05180736631155014,
3.8525,0.054572027176618576,
3.855,0.05721648782491684,
3.8574999999999999,0.059572458267211914,
3.8599999999999999,0.063274703919887543,
3.8624999999999998,0.0646209716796875,
3.8650000000000002,0.06570279598236084,
3.8675000000000002,0.066712498664855957,
3.8700000000000001,0.068948268890380859,
3.8725000000000001,0.070462822914123535,
3.875,0.072386071085929871,
3.8774999999999999,0.074742041528224945,
3.8799999999999999,0.08063197135925293,
3.8824999999999998,0.083949565887451172,
3.8849999999999998,0.087411403656005859,
3.8875000000000002,0.090825162827968597,
3.8900000000000001,0.097292065620422363,
3.8925000000000001,0.10027309507131577,
3.895,0.10310988128185272,
3.8975,0.10585050284862518,
3.8999999999999999,0.11157214641571045,
3.9024999999999999,0.11474549770355225,
3.9049999999999998,0.11825542151927948,
3.9075000000000002,0.12212594598531723,
3.9100000000000001,0.13097286224365234,
3.9125000000000001,0.13585309684276581,
3.915,0.14094969630241394,
3.9175,0.14616648852825165,
3.9199999999999999,0.15662412345409393,
3.9224999999999999,0.16174475848674774,
3.9249999999999998,0.16674518585205078,
3.9275000000000002,0.17160138487815857,
3.9300000000000002,0.18097719550132751,
3.9325000000000001,0.18552085757255554,
3.9350000000000001,0.18996834754943848,
3.9375,0.19436776638031006,
3.9399999999999999,0.20275792479515076,
3.9424999999999999,0.20667652785778046,
3.9449999999999998,0.21033069491386414,
3.9474999999999998,0.21364828944206238,
3.9500000000000002,0.21905741095542908,
3.9525000000000001,0.22105276584625244,
3.9550000000000001,0.22251924872398376,
3.9575,0.22338470816612244,
3.96,0.22324046492576599,
3.9624999999999999,0.22213459014892578,
3.9649999999999999,0.22021135687828064,
3.9674999999999998,0.21747073531150818,
3.9700000000000002,0.20929694175720215,
3.9725000000000001,0.20381569862365723,
3.9750000000000001,0.19737283885478973,
3.9775,0.19001643359661102,
3.98,0.17275533080101013,
3.9824999999999999,0.16301891207695007,
3.9849999999999999,0.15272955596446991,
3.9874999999999998,0.14198343455791473,
3.9900000000000002,0.11969785392284393,
3.9925000000000002,0.1084468811750412,
3.9950000000000001,0.097316108644008636,
3.9975000000000001,0.086449787020683289,
4,0.06599128246307373,93.385215759277344
4.0025000000000004,0.056615471839904785,
4.0049999999999999,0.047912798821926117,
4.0075000000000003,0.039907298982143402,
4.0099999999999998,0.026083987206220627,
4.0125000000000002,0.020218094810843468,
4.0149999999999997,0.015001296997070312,
4.0175000000000001,0.010361473076045513,
4.0199999999999996,0.002476175781339407,
4.0225,-0.0008895000210031867,
4.0250000000000004,-0.0039666891098022461,
4.0274999999999999,-0.0068034729920327663,
4.0300000000000002,-0.011827945709228516,
4.0324999999999998,-0.013991594314575195,
4.0350000000000001,-0.015938878059387207,
4.0374999999999996,-0.017597675323486328,
4.04,-0.020073851570487022,
4.0425000000000004,-0.020843148231506348,
4.0449999999999999,-0.021299919113516808,
4.0475000000000003,-0.021540325134992599,
4.0499999999999998,-0.021492242813110352,
4.0525000000000002,-0.021396081894636154,
4.0549999999999997,-0.021299919113516808,
4.0575000000000001,-0.021299919113516808,
4.0599999999999996,-0.021684568375349045,
4.0625,-0.022021135315299034,
4.0650000000000004,-0.022429823875427246,
4.0674999999999999,-0.022814473137259483,
4.0700000000000003,-0.023367404937744141,
4.0724999999999998,-0.023487608879804611,
4.0750000000000002,-0.023463567718863487,
4.0774999999999997,-0.023367404937744141,
4.0800000000000001,-0.023151040077209473,
4.0824999999999996,-0.023151040077209473,
4.085,-0.023271244019269943,
4.0875000000000004,-0.02353568933904171,
4.0899999999999999,-0.024304986000061035,
4.0925000000000002,-0.024713676422834396,
4.0949999999999998,-0.025002162903547287,
4.0975000000000001,-0.025146406143903732,
4.0999999999999996,-0.024761756882071495,
4.1025,-0.02428094670176506,
4.1050000000000004,-0.023631852120161057,
4.1074999999999999,-0.02291063591837883,
4.1100000000000003,-0.021588405594229698,
4.1124999999999998,-0.021107595413923264,
4.1150000000000002,-0.020722946152091026,
4.1174999999999997,-0.020434459671378136,
4.1200000000000001,-0.020194053649902344,
4.1224999999999996,-0.019400715827941895,
4.125,-0.018679499626159668,
4.1275000000000004,-0.017669796943664551,
4.1299999999999999,-0.016347568482160568,
4.1325000000000003,-0.012957851402461529,
4.1349999999999998,-0.01105864904820919,
4.1375000000000002,-0.0092315673828125,
4.1399999999999997,-0.0062505407258868217,
4.1425000000000001,-0.0052648782730102539,
4.1449999999999996,-0.0046638650819659233,
4.1475,-0.0044234595261514187,
4.1500000000000004,-0.0046398243866860867,
4.1524999999999999,-0.0048561892472207546,
4.1550000000000002,-0.0049763917922973633,
4.1574999999999998,-0.0049042701721191406,
4.1600000000000001,-0.0038705270271748304,
4.1624999999999996,-0.0029329459648579359,
4.165,-0.0018030405044555664,
4.1675000000000004,-0.00055293244076892734,
4.1699999999999999,0.0018751621246337891,
4.1725000000000003,0.0028608243446797132,
4.1749999999999998,0.0036541621666401625,
4.1775000000000002,0.0042070946656167507,
4.1799999999999997,0.004832148551940918,
4.1825000000000001,0.0050004324875771999,
4.1849999999999996,0.0052167973481118679,
4.1875,0.0055052838288247585,
4.1900000000000004,0.0064909458160400391,
4.1924999999999999,0.0071640810929238796,
4.1950000000000003,0.0079333782196044922,
4.1974999999999998,0.0086545944213867188,
4.2000000000000002,0.0097604598850011826,
4.2024999999999997,0.0099527835845947266,
4.2050000000000001,0.0098806619644165039,
4.2074999999999996,0.0095440950244665146,
4.21,0.0082459058612585068,
4.2125000000000004,0.0075246891938149929,
4.2149999999999999,0.0068996353074908257,
4.2175000000000002,0.0064909458160400391,
4.2199999999999998,0.0065390272065997124,
4.2225000000000001,0.007043878547847271,
4.2249999999999996,0.0078131761401891708,
4.2275,0.0087267160415649414,
4.2300000000000004,0.010625919327139854,
4.2324999999999999,0.01139521598815918,
4.2350000000000003,0.011948148719966412,
4.2374999999999998,0.012236635200679302,
4.2400000000000002,0.012188553810119629,
4.2424999999999997,0.011948148719966412,
4.2450000000000001,0.01168370246887207,
4.2474999999999996,0.011419257149100304,
4.25,0.011154810898005962,
4.2525000000000004,0.011154810898005962,
4.2549999999999999,0.011202892288565636,
4.2575000000000003,0.011299054138362408,
4.2599999999999998,0.01139521598815918,
4.2625000000000002,0.011635622009634972,
4.2649999999999997,0.011876027099788189,
4.2675000000000001,0.012236635200679302,
4.2699999999999996,0.013703107833862305,
4.2725,0.01492917537689209,
4.2750000000000004,0.016443729400634766,
4.2774999999999999,0.01829485222697258,
4.2800000000000002,0.022525986656546593,
4.2824999999999998,0.024713676422834396,
4.2850000000000001,0.026781162247061729,
4.2874999999999996,0.028560161590576172,
4.29,0.031036337837576866,
4.2925000000000004,0.031589269638061523,
4.2949999999999999,0.031661391258239746,
4.2975000000000003,0.031276743859052658,
4.2999999999999998,0.029353499412536621,
4.3025000000000002,0.027959149330854416,
4.3049999999999997,0.026468634605407715,
4.3075000000000001,0.024978121742606163,
4.3099999999999996,0.022766392678022385,
4.3125,0.022357702255249023,
4.3150000000000004,0.022694271057844162,
4.3174999999999999,0.023896297439932823,
4.3200000000000003,0.029305418953299522,
4.3224999999999998,0.03351251408457756,
4.3250000000000002,0.038633149117231369,
4.3274999999999997,0.044402878731489182,
4.3300000000000001,0.056831836700439453,
4.3324999999999996,0.062721773982048035,
4.335,0.067914530634880066,
4.3375000000000004,0.072001419961452484,
4.3399999999999999,0.075823865830898285,
4.3425000000000002,0.075198814272880554,
4.3449999999999998,0.072866879403591156,
4.3475000000000001,0.068948268890380859,
4.3499999999999996,0.057336688041687012,
4.3525,0.050316851586103439,
4.3550000000000004,0.042936407029628754,
4.3574999999999999,0.035580001771450043,
4.3600000000000003,0.022237500175833702,
4.3624999999999998,0.016684135422110558,
4.3650000000000002,0.012044310569763184,
4.3674999999999997,0.0083420677110552788,
4.3700000000000001,0.0035339593887329102,
4.3724999999999996,0.0021876893006265163,
4.375,0.0013703107833862305,
4.3775000000000004,0.00096162164118140936,
4.3799999999999999,0.0010818243026733398,
4.3825000000000003,0.0016347568016499281,
4.3849999999999998,0.0025963783264160156,
4.3875000000000002,0.0040388107299804688,
4.3899999999999997,0.0085343923419713974,
4.3925000000000001,0.01137117575854063,
4.3949999999999996,0.014207959175109863,
4.3975,0.016539892181754112,
4.4000000000000004,0.01675625704228878,
4.4024999999999999,0.013054013252258301,
4.4050000000000002,0.0058418512344360352,
4.4074999999999998,-0.0053610405884683132,
4.4100000000000001,-0.039594769477844238,
4.4124999999999996,-0.061303377151489258,
4.415,-0.084238052368164062,
4.4175000000000004,-0.10640343278646469,
4.4199999999999999,-0.13818502426147461,
4.4225000000000003,-0.1421997994184494,
4.4249999999999998,-0.13469915091991425,
4.4275000000000002,-0.11332710832357407,
4.4299999999999997,-0.023199122399091721,
4.4325000000000001,0.046109758317470551,
4.4349999999999996,0.13001124560832977,
4.4375,0.22574067115783691,
4.4400000000000004,0.43549439311027527,
4.4424999999999999,0.53841197490692139,
4.4450000000000003,0.63168925046920776,
4.4474999999999998,0.70897960662841797,
4.4500000000000002,0.79398691654205322,
4.4524999999999997,0.79434752464294434,
4.4550000000000001,0.76492190361022949,
4.4574999999999996,0.70715248584747314,
4.46,0.52307409048080444,
4.4625000000000004,0.40921807289123535,
4.4649999999999999,0.29077035188674927,
4.4675000000000002,0.17542383074760437,
4.4699999999999998,-0.019905567169189453,
4.4725000000000001,-0.090632840991020203,
4.4749999999999996,-0.14054100215435028,
4.4775,-0.16991853713989258,
4.4800000000000004,-0.17657777667045593,
4.4824999999999999,-0.16123990714550018,
4.4850000000000003,-0.1390264481306076,
4.4874999999999998,-0.11383195966482162,
4.4900000000000002,-0.066424012184143066,
4.4924999999999997,-0.047768555581569672,
4.4950000000000001,-0.03334423154592514,
4.4974999999999996,-0.022838514298200607,
4.5,-0.010481676086783409,
4.5025000000000004,-0.0067553920671343803,
4.5049999999999999,-0.0035820405464619398,
4.5075000000000003,-0.00050485134124755859,
4.5099999999999998,0.0062986216507852077,
4.5125000000000002,0.0099287433549761772,
4.5149999999999997,0.013510784134268761,
4.5175000000000001,0.016876459121704102,
4.5199999999999996,0.022622149437665939,
4.5225,0.024954080581665039,
4.5250000000000004,0.026997527107596397,
4.5274999999999999,0.028824608772993088,
4.5300000000000002,0.032190285623073578,
4.5324999999999998,0.033776961266994476,
4.5350000000000001,0.035339593887329102,
4.5374999999999996,0.036878190934658051,
4.54,0.039763055741786957,
4.5425000000000004,0.041181445121765137,
4.5449999999999999,0.042551755905151367,
4.5475000000000003,0.043970149010419846,
4.5499999999999998,0.047047339379787445,
4.5525000000000002,0.048706136643886566,
4.5549999999999997,0.050509177148342133,
4.5575000000000001,0.052408378571271896,
4.5599999999999996,0.056399106979370117,
4.5625,0.058442555367946625,
4.5650000000000004,0.060534082353115082,
4.5674999999999999,0.062649652361869812,
4.5700000000000003,0.066976949572563171,
4.5724999999999998,0.06923675537109375,
4.5750000000000002,0.071568690240383148,
4.5774999999999997,0.074020825326442719,
4.5800000000000001,0.076545082032680511,
4.5824999999999996,0.081882081925868988,
4.585,0.084646746516227722,
4.5875000000000004,0.087459489703178406,
4.5899999999999999,0.093133054673671722,
4.5925000000000002,0.096017919480800629,
4.5949999999999998,0.098926827311515808,
4.5975000000000001,0.10190784931182861,
4.5999999999999996,0.10818243026733398,
4.6025,0.1115240678191185,
4.6050000000000004,0.11503398418426514,
4.6074999999999999,0.11876027286052704,
4.6100000000000003,0.12686192989349365,
4.6124999999999998,0.13126134872436523,
4.6150000000000002,0.13590118288993835,
4.6174999999999997,0.14078140258789062,
4.6200000000000001,0.15135924518108368,
4.6224999999999996,0.15703281760215759,
4.625,0.16292273998260498,
4.6275000000000004,0.16902904212474823,
4.6299999999999999,0.18150608241558075,
4.6325000000000003,0.18773257732391357,
4.6349999999999998,0.1937667578458786,
4.6375000000000002,0.19953648746013641,
4.6399999999999997,0.20997008681297302,
4.6425000000000001,0.21453778445720673,
4.6449999999999996,0.21872083842754364,
4.6475,0.22254328429698944,
4.6500000000000004,0.22941887378692627,
4.6524999999999999,0.23261627554893494,
4.6550000000000002,0.23571750521659851,
4.6574999999999998,0.23869852721691132,
4.6600000000000001,0.24396340548992157,
4.6624999999999996,0.24593472480773926,
4.665,0.24718484282493591,
4.6675000000000004,0.24752140045166016,
4.6699999999999999,0.24466058611869812,
4.6725000000000003,0.24119874835014343,
4.6749999999999998,0.23631851375102997,
4.6775000000000002,0.23006796836853027,
4.6799999999999997,0.22254328429698944,
4.6825000000000001,0.20441672205924988,
4.6849999999999996,0.19419948756694794,
4.6875,0.18350145220756531,
4.6900000000000004,0.16136011481285095,
4.6924999999999999,0.15015721321105957,
4.6950000000000003,0.13897836208343506,
4.6974999999999998,0.12789568305015564,
4.7000000000000002,0.10604282468557358,
4.7024999999999997,0.095344781875610352,
4.7050000000000001,0.08486311137676239,
4.7074999999999996,0.074693962931632996,
4.71,0.055533647537231445,
4.7125000000000004,0.046806931495666504,
4.7149999999999999,0.038777392357587814,
4.7175000000000002,0.031493108719587326,
4.7199999999999998,0.01937667652964592,
4.7225000000000001,0.014520486816763878,
4.7249999999999996,0.010409554466605186,
4.7275,0.006923675537109375,
4.7300000000000004,0.0015385946026071906,
4.7324999999999999,-0.00057697296142578125,
4.7350000000000003,-0.0023800134658813477,
4.7374999999999998,-0.0039907298050820827,
4.7400000000000002,-0.006659229751676321,
4.7424999999999997,-0.0077650947496294975,
4.7450000000000001,-0.0087507572025060654,
4.7474999999999996,-0.0096402568742632866,
4.75,-0.011154810898005962,
4.7525000000000004,-0.011803905479609966,
4.7549999999999999,-0.012428959831595421,
4.7575000000000003,-0.012981891632080078,
4.7599999999999998,-0.014015635475516319,
4.7625000000000002,-0.014472405426204205,
4.7649999999999997,-0.014857053756713867,
4.7675000000000001,-0.015145540237426758,
4.7699999999999996,-0.015361905097961426,
4.7725,-0.015241703018546104,
4.7750000000000004,-0.01492917537689209,
4.7774999999999999,-0.014448365196585655,
4.7800000000000002,-0.013102094642817974,
4.7824999999999998,-0.012284716591238976,
4.7850000000000001,-0.011491378769278526,
4.7874999999999996,-0.010746121406555176,
4.79,-0.0096402568742632866,
4.7925000000000004,-0.0093758106231689453,
4.7949999999999999,-0.0093036890029907227,
4.7975000000000003,-0.0094238920137286186,
4.7999999999999998,-0.010145108215510845,
4.8025000000000002,-0.01060187816619873,
4.8049999999999997,-0.01105864904820919,
4.8075000000000001,-0.011419257149100304,
4.8099999999999996,-0.011803905479609966,
4.8125,-0.011755824089050293,
4.8150000000000004,-0.011587540619075298,
4.8174999999999999,-0.011323094367980957,
4.8200000000000003,-0.010986527428030968,
4.8224999999999998,-0.01031339168548584,
4.8250000000000002,-0.010024905204772949,
4.8274999999999997,-0.0097845001146197319,
4.8300000000000001,-0.0095921754837036133,
4.8324999999999996,-0.0091834869235754013,
4.835,-0.0088950004428625107,
4.8375000000000004,-0.0085343923419713974,
4.8399999999999999,-0.0075487298890948296,
4.8425000000000002,-0.0069717569276690483,
4.8449999999999998,-0.0063947839662432671,
4.8475000000000001,-0.0058658919297158718,
4.8499999999999996,-0.0050965948030352592,
4.8525,-0.0048802299425005913,
4.8550000000000004,-0.0047600269317626953,
4.8574999999999999,-0.0046638650819659233,
4.8600000000000003,-0.0041830539703369141,
4.8624999999999998,-0.0036301217041909695,
4.8650000000000002,-0.0028127431869506836,
4.8674999999999997,-0.0016828378429636359,
4.8700000000000001,-0.000312527030473575,
4.8724999999999996,0.0028367838822305202,
4.875,0.004351337905973196,
4.8775000000000004,0.0056254863739013672,
4.8799999999999999,0.0065390272065997124,
4.8825000000000003,0.0069477162323892117,
4.8849999999999998,0.0064428648911416531,
4.8875000000000002,0.0055533647537231445,
4.8899999999999997,0.0043753786012530327,
4.8925000000000001,0.0019232432823628187,
4.8949999999999996,0.00091354054166004062,
4.8975,0.00024040541029535234,
4.9000000000000004,-4.8081081331474707e-05,
4.9024999999999999,0.00055293244076892734,
4.9050000000000002,0.0013462703209370375,
4.9074999999999998,0.0023319325409829617,
4.9100000000000001,0.004519621841609478,
4.9124999999999996,0.0055293245241045952,
4.915,0.0063947839662432671,
4.9175000000000004,0.007043878547847271,
4.9199999999999999,0.0074766082689166069,
4.9225000000000003,0.0077650947496294975,
4.9249999999999998,0.0076689324341714382,
4.9275000000000002,0.0074766082689166069,
4.9299999999999997,0.007043878547847271,
4.9325000000000001,0.006923675537109375,
4.9349999999999996,0.0068996353074908257,
4.9375,0.0070198378525674343,
4.9400000000000004,0.0072842836380004883,
4.9424999999999999,0.0081737842410802841,
4.9450000000000003,0.0087026758119463921,
4.9474999999999998,0.0092075271531939507,
4.9500000000000002,0.0096402568742632866,
4.9524999999999997,0.010121067985892296,
4.9550000000000001,0.010097026824951172,
4.9574999999999996,0.0099287433549761772,
4.96,0.0090873241424560547,
4.9625000000000004,0.0085103511810302734,
4.9649999999999999,0.0079093379899859428,
4.9675000000000002,0.0073083243332803249,
4.9699999999999998,0.0067553920671343803,
4.9725000000000001,0.0060341758653521538,
4.9749999999999996,0.0059620542451739311,
4.9775,0.0061784191057085991,
4.9800000000000004,0.006707310676574707,
4.9824999999999999,0.0087507572025060654,
4.9850000000000003,0.01028935145586729,
4.9874999999999998,0.012116432189941406,
4.9900000000000002,0.016371607780456543,
4.9924999999999997,0.018631419166922569,
4.9950000000000001,0.020843148231506348,
4.9974999999999996,0.02291063591837883,
5,0.024713676422834396,92.307693481445312
5.0025000000000004,0.027286013588309288,
5.0049999999999999,0.027935108169913292,
5.0075000000000003,0.028103392571210861,
5.0099999999999998,0.027814906090497971,
5.0125000000000002,0.025963783264160156,
5.0149999999999997,0.024569433182477951,
5.0175000000000001,0.023006796836853027,
5.0199999999999996,0.021468203514814377,
5.0225,0.019424756988883018,
5.0250000000000004,0.019424756988883018,
5.0274999999999999,0.020410418510437012,
5.0300000000000002,0.022598108276724815,
5.0324999999999998,0.030675729736685753,
5.0350000000000001,0.036397378891706467,
5.0374999999999996,0.042864285409450531,
5.04,0.049715839326381683,
5.0425000000000004,0.062481366097927094,
5.0449999999999999,0.067409679293632507,
5.0475000000000003,0.070799395442008972,
5.0499999999999998,0.071953341364860535,
5.0525000000000002,0.069621406495571136,
5.0549999999999997,0.065534517168998718,
5.0575000000000001,0.06000518798828125,
5.0599999999999996,0.0461578369140625,
5.0625,0.038729310035705566,
5.0650000000000004,0.031493108719587326,
5.0674999999999999,0.024761756882071495,
5.0700000000000003,0.018775662407279015,
5.0724999999999998,0.0093998517841100693,
5.0750000000000002,0.0060341758653521538,
5.0774999999999997,0.0033897161483764648,
5.0800000000000001,-0.00026444596005603671,
5.0824999999999996,-0.0016347568016499281,
5.085,-0.0028127431869506836,
5.0875000000000004,-0.0038945674896240234,
5.0899999999999999,-0.0048561892472207546,
5.0925000000000002,-0.0058418512344360352,
5.0949999999999998,-0.0055293245241045952,
5.0975000000000001,-0.0044234595261514187,
5.0999999999999996,0.00036060810089111328,
5.1025,0.0037503242492675781,
5.1050000000000004,0.0072121620178222656,
5.1074999999999999,0.010121067985892296,
5.1100000000000003,0.011587540619075298,
5.1124999999999998,0.0065630674362182617,
5.1150000000000002,-0.0015145540237426758,
5.1174999999999997,-0.013895432464778423,
5.1200000000000001,-0.050821702927350998,
5.1224999999999996,-0.073491930961608887,
5.125,-0.096811257302761078,
5.1275000000000004,-0.11844774335622787,
5.1299999999999999,-0.14587800204753876,
5.1325000000000003,-0.14595012366771698,
5.1349999999999998,-0.13335287570953369,
5.1375000000000002,-0.1060187816619873,
5.1399999999999997,-0.0025723378639668226,
5.1425000000000001,0.073227487504482269,
5.1449999999999996,0.16285061836242676,
5.1475,0.26300352811813354,
5.1500000000000004,0.47576230764389038,
5.1524999999999999,0.57656431198120117,
5.1550000000000002,0.66498541831970215,
5.1574999999999998,0.73475104570388794,
5.1600000000000001,0.79797768592834473,
5.1624999999999996,0.78528428077697754,
5.165,0.74241995811462402,
5.1675000000000004,0.67176485061645508,
5.1699999999999999,0.46720385551452637,
5.1725000000000003,0.34724158048629761,
5.1749999999999998,0.22605320811271667,
5.1775000000000002,0.11130770295858383,
5.1799999999999997,-0.073780417442321777,
5.1825000000000001,-0.13616561889648438,
5.1849999999999996,-0.17662584781646729,
5.1875,-0.19633910059928894,
5.1900000000000004,-0.18604974448680878,
5.1924999999999999,-0.1644853800535202,
5.1950000000000003,-0.13792058825492859,
5.1974999999999998,-0.11027395725250244,
5.2000000000000002,-0.062745809555053711,
5.2024999999999997,-0.045749150216579437,
5.2050000000000001,-0.033536553382873535,
5.2074999999999996,-0.025458931922912598,
5.21,-0.017309188842773438,
5.2125000000000004,-0.015001296997070312,
5.2149999999999999,-0.012693405151367188,
5.2175000000000002,-0.0099047031253576279,
5.2199999999999998,-0.0025723378639668226,
5.2225000000000001,0.0016347568016499281,
5.2249999999999996,0.0057937703095376492,
5.2275,0.0096402568742632866,
5.2300000000000004,0.015794634819030762,
5.2324999999999999,0.018078487366437912,
5.2350000000000003,0.0200017299503088,
5.2374999999999998,0.021756689995527267,
5.2400000000000002,0.0253627710044384,
5.2424999999999997,0.027454297989606857,
5.2450000000000001,0.029762189835309982,
5.2474999999999996,0.032214324921369553,
5.25,0.037166677415370941,
5.2525000000000004,0.039402447640895844,
5.2549999999999999,0.04137377068400383,
5.2575000000000003,0.043008528649806976,
5.2599999999999998,0.045412581413984299,
5.2625000000000002,0.046326123178005219,
5.2649999999999997,0.047215621918439865,
5.2675000000000001,0.04815320298075676,
5.2699999999999996,0.050677459686994553,
5.2725,0.052384339272975922,
5.2750000000000004,0.054403744637966156,
5.2774999999999999,0.056687593460083008,
5.2800000000000002,0.061904393136501312,
5.2824999999999998,0.064693093299865723,
5.2850000000000001,0.067529879510402679,
5.2874999999999996,0.070366665720939636,
5.29,0.07596810907125473,
5.2925000000000004,0.078708730638027191,
5.2949999999999999,0.081425309181213379,
5.2975000000000003,0.08411785215139389,
5.2999999999999998,0.089502930641174316,
5.3025000000000002,0.092195473611354828,
5.3049999999999997,0.094888016581535339,
5.3075000000000001,0.097604595124721527,
5.3099999999999996,0.10315795987844467,
5.3125,0.10609090328216553,
5.3150000000000004,0.1091921329498291,
5.3174999999999999,0.11253377050161362,
5.3200000000000003,0.12003441900014877,
5.3224999999999998,0.12431363761425018,
5.3250000000000002,0.12895345687866211,
5.3274999999999997,0.13392984867095947,
5.3300000000000001,0.14484426379203796,
5.3324999999999996,0.150686115026474,
5.335,0.15672028064727783,
5.3375000000000004,0.1628987044095993,
5.3399999999999999,0.17542383074760437,
5.3425000000000002,0.18165032565593719,
5.3449999999999998,0.18775662779808044,
5.3475000000000001,0.19362251460552216,
5.3499999999999996,0.20439267158508301,
5.3525,0.20912866294384003,
5.3550000000000004,0.21335980296134949,
5.3574999999999999,0.21706204116344452,
5.3600000000000003,0.22292792797088623,
5.3624999999999998,0.225187748670578,
5.3650000000000002,0.22706291079521179,
5.3674999999999997,0.22860150039196014,
5.3700000000000001,0.23081323504447937,
5.3724999999999996,0.23141424357891083,
5.375,0.23155848681926727,
5.3775000000000004,0.23114979267120361,
5.3799999999999999,0.22788028419017792,
5.3825000000000003,0.22465884685516357,
5.3849999999999998,0.22021135687828064,
5.3875000000000002,0.21439354121685028,
5.3899999999999997,0.19864699244499207,
5.3925000000000001,0.18886248767375946,
5.3949999999999996,0.17804424464702606,
5.3975,0.16643266379833221,
5.4000000000000004,0.14191131293773651,
5.4024999999999999,0.12957851588726044,
5.4050000000000002,0.11753420531749725,
5.4074999999999998,0.10597070306539536,
5.4100000000000001,0.084694825112819672,
5.4124999999999996,0.075054571032524109,
5.415,0.06599128246307373,
5.4175000000000004,0.05738477036356926,
5.4199999999999999,0.041181445121765137,
5.4225000000000003,0.03334423154592514,
5.4249999999999998,0.025627216324210167,
5.4275000000000002,0.018030405044555664,
5.4299999999999997,0.0034858784638345242,
5.4325000000000001,-0.0031973919831216335,
5.4349999999999996,-0.0092796487733721733,
5.4375,-0.014664730057120323,
5.4400000000000004,-0.022838514298200607,
5.4424999999999999,-0.025555094704031944,
5.4450000000000003,-0.027454297989606857,
5.4474999999999998,-0.02860824391245842,
5.4500000000000002,-0.029329460114240646,
5.4524999999999997,-0.029281377792358398,
5.4550000000000001,-0.029161175712943077,
5.4574999999999996,-0.029113095253705978,
5.46,-0.029449662193655968,
5.4625000000000004,-0.029834311455488205,
5.4649999999999999,-0.030267041176557541,
5.4675000000000002,-0.030723810195922852,
5.4699999999999998,-0.031300783157348633,
5.4725000000000001,-0.031348865479230881,
5.4749999999999996,-0.031252704560756683,
5.4775,-0.031084418296813965,
5.4800000000000004,-0.030844014137983322,
5.4824999999999999,-0.030964216217398643,
5.4850000000000003,-0.031348865479230881,
5.4874999999999998,-0.031997960060834885,
5.4900000000000002,-0.033921204507350922,
5.4924999999999997,-0.035003028810024261,
5.4950000000000001,-0.035940609872341156,
5.4974999999999996,-0.036637783050537109,
5.5,-0.036878190934658051,
5.5025000000000004,-0.036397378891706467,
5.5049999999999999,-0.03555595874786377,
5.5075000000000003,-0.034498177468776703,
5.5099999999999998,-0.032262407243251801,
5.5125000000000002,-0.031372904777526855,
5.5149999999999997,-0.030747851356863976,
5.5175000000000001,-0.030483406037092209,
5.5199999999999996,-0.030819972977042198,
5.5225,-0.031276743859052658,
5.5250000000000004,-0.031805634498596191,
5.5274999999999999,-0.032262407243251801,
5.5300000000000002,-0.032598972320556641,
5.5324999999999998,-0.032382607460021973,
5.5350000000000001,-0.031877756118774414,
5.5374999999999996,-0.031156539916992188,
5.54,-0.029185216873884201,
5.5425000000000004,-0.028103392571210861,
5.5449999999999999,-0.027045607566833496,
5.5475000000000003,-0.026083987206220627,
5.5499999999999998,-0.024593472480773926,
5.5525000000000002,-0.024088621139526367,
5.5549999999999997,-0.023703973740339279,
5.5575000000000001,-0.023439526557922363,
5.5599999999999996,-0.023030837997794151,
5.5625,-0.022766392678022385,
5.5650000000000004,-0.022429823875427246,
5.5674999999999999,-0.021949013695120811,
5.5700000000000003,-0.020698904991149902,
5.5724999999999998,-0.019977688789367676,
5.5750000000000002,-0.019280513748526573,
5.5774999999999997,-0.018655460327863693,
5.5800000000000001,-0.018006365746259689,
5.5824999999999996,-0.018078487366437912,
5.585,-0.018415054306387901,
5.5875000000000004,-0.019016068428754807,
5.5899999999999999,-0.020506581291556358,
5.5925000000000002,-0.021155675873160362,
5.5949999999999998,-0.021564364433288574,
5.5975000000000001,-0.021588405594229698,
5.5999999999999996,-0.020242135971784592,
5.6025,-0.018871825188398361,
5.6050000000000004,-0.017116865143179893,
5.6074999999999999,-0.015121500007808208,
5.6100000000000003,-0.011010567657649517,
5.6124999999999998,-0.0092075271531939507,
5.6150000000000002,-0.0077170133590698242,
5.6174999999999997,-0.006659229751676321,
5.6200000000000001,-0.0058178110048174858,
5.6224999999999996,-0.0059620542451739311,
5.625,-0.0063707432709634304,
5.6275000000000004,-0.0069957971572875977,
5.6299999999999999,-0.0085343923419713974,
5.6325000000000003,-0.0093758106231689453,
5.6349999999999998,-0.010193189606070518,
5.6375000000000002,-0.010986527428030968,
5.6399999999999997,-0.012525121681392193,
5.6425000000000001,-0.013246337883174419,
5.6449999999999996,-0.013871392235159874,
5.6475,-0.014424324035644531,
5.6500000000000004,-0.015121500007808208,
5.6524999999999999,-0.015241703018546104,
5.6550000000000002,-0.015169581398367882,
5.6574999999999998,-0.014953216537833214,
5.6600000000000001,-0.014159878715872765,
5.6624999999999996,-0.013630986213684082,
5.665,-0.013102094642817974,
5.6675000000000004,-0.012549161911010742,
5.6699999999999999,-0.011539459228515625,
5.6725000000000003,-0.01105864904820919,
5.6749999999999998,-0.010577837936580181,
5.6775000000000002,-0.010121067985892296,
5.6799999999999997,-0.0092796487733721733,
5.6825000000000001,-0.0089430809020996094,
5.6849999999999996,-0.0087026758119463921,
5.6875,-0.0086065139621496201,
5.6900000000000004,-0.0087507572025060654,
5.6924999999999999,-0.0089430809020996094,
5.6950000000000003,-0.009135405533015728,
5.6974999999999998,-0.0092075271531939507,
5.7000000000000002,-0.0086305541917681694,
5.7024999999999997,-0.0077891349792480469,
5.7050000000000001,-0.0065630674362182617,
5.7074999999999996,-0.0049523515626788139,
5.71,-0.00096162164118140936,
5.7125000000000004,0.0011779865017160773,
5.7149999999999999,0.0032454729080200195,
5.7175000000000002,0.0050965948030352592,
5.7199999999999998,0.0078612565994262695,
5.7225000000000001,0.0087267160415649414,
5.7249999999999996,0.0093036890029907227,
5.7275,0.0096162166446447372,
5.7300000000000004,0.0096883382648229599,
5.7324999999999999,0.0094960136339068413,
5.7350000000000003,0.0091113653033971786,
5.7374999999999998,0.0085584325715899467,
5.7400000000000002,0.0067553920671343803,
5.7424999999999997,0.0055774054490029812,
5.7450000000000001,0.0042792162857949734,
5.7474999999999996,0.0030531487427651882,
5.75,0.0016347568016499281,
5.7525000000000004,0.0019472837448120117,
5.7549999999999999,0.0032695136032998562,
5.7575000000000003,0.0057216486893594265,
5.7599999999999998,0.014207959175109863,
5.7625000000000002,0.020025771111249924,
5.7649999999999997,0.026540756225585938,
5.7675000000000001,0.033368270844221115,
5.7699999999999996,0.0461578369140625,
5.7725,0.051254432648420334,
5.7750000000000004,0.054980717599391937,
5.7774999999999999,0.057096283882856369,
5.7800000000000002,0.056158702820539474,
5.7824999999999998,0.053249798715114594,
5.7850000000000001,0.049042701721191406,
5.7874999999999996,0.0438259057700634,
5.79,0.031829677522182465,
5.7925000000000004,0.025723379105329514,
5.7949999999999999,0.019905567169189453,
5.7975000000000003,0.014544527046382427,
5.7999999999999998,0.0054331622086465359,
5.8025000000000002,0.0016587972640991211,
5.8049999999999997,-0.0017549594631418586,
5.8075000000000001,-0.0048561892472207546,
5.8099999999999996,-0.010481676086783409,
5.8125,-0.013005932793021202,
5.8150000000000004,-0.015193621627986431,
5.8174999999999999,-0.016924541443586349,
5.8200000000000003,-0.018054446205496788,
5.8224999999999998,-0.017068784683942795,
5.8250000000000002,-0.01492917537689209,
5.8274999999999997,-0.011707743629813194,
5.8300000000000001,-0.0031493108253926039,
5.8324999999999996,0.0010577838402241468,
5.835,0.0041830539703369141,
5.8375000000000004,0.0053369998931884766,
5.8399999999999999,-0.0017790000420063734,
5.8425000000000002,-0.011323094367980957,
5.8449999999999998,-0.025194486603140831,
5.8475000000000001,-0.043032567948102951,
5.8499999999999996,-0.086810395121574402,
5.8525,-0.10945658385753632,
5.8550000000000004,-0.12965063750743866,
5.8574999999999999,-0.14474809169769287,
5.8600000000000003,-0.14873883128166199,
5.8624999999999998,-0.13251146674156189,
5.8650000000000002,-0.1014510840177536,
5.8674999999999997,-0.054427783936262131,
5.8700000000000001,0.086834430694580078,
5.8724999999999996,0.17777979373931885,
5.875,0.27793270349502563,
5.8775000000000004,0.38250905275344849,
5.8799999999999999,0.58139646053314209,
5.8825000000000003,0.66291791200637817,
5.8849999999999998,0.72431743144989014,
5.8875000000000002,0.76054656505584717,
5.8899999999999997,0.74590587615966797,
5.8925000000000001,0.69441103935241699,
5.8949999999999996,0.61685621738433838,
5.8975,0.51843428611755371,
5.9000000000000004,0.2869238555431366,
5.9024999999999999,0.16946177184581757,
5.9050000000000002,0.060822568833827972,
5.9074999999999998,-0.032935541123151779,
5.9100000000000001,-0.16085526347160339,
5.9124999999999996,-0.19268493354320526,
5.915,-0.20487348735332489,
5.9175000000000004,-0.20064234733581543,
5.9199999999999999,-0.15996575355529785,
5.9225000000000003,-0.13229510188102722,
5.9249999999999998,-0.10481675714254379,
5.9275000000000002,-0.080199241638183594,
5.9299999999999997,-0.045003890991210938,
5.9325000000000001,-0.034810703247785568,
5.9349999999999996,-0.028632283210754395,
5.9375,-0.025266608223319054,
5.9400000000000004,-0.022237500175833702,
5.9424999999999999,-0.020674865692853928,
5.9450000000000003,-0.018342932686209679,
5.9474999999999998,-0.015073418617248535,
5.9500000000000002,-0.0063467025756835938,
5.9524999999999997,-0.0015626351814717054,
5.9550000000000001,0.0030771892052143812,
5.9574999999999996,0.0072362027131021023,
5.96,0.013582905754446983,
5.9625000000000004,0.015770595520734787,
5.9649999999999999,0.01738131046295166,
5.9675000000000002,0.018631419166922569,
5.9699999999999998,0.020698904991149902,
5.9725000000000001,0.02182881161570549,
5.9749999999999996,0.023151040077209473,
5.9775,0.024713676422834396,
5.9800000000000004,0.028584202751517296,
5.9824999999999999,0.030795931816101074,
5.9850000000000003,0.033103823661804199,
5.9874999999999998,0.035435758531093597,
5.9900000000000002,0.040027499198913574,
5.9924999999999997,0.042191147804260254,
5.9950000000000001,0.044258635491132736,
5.9974999999999996,0.046254001557826996,
6,0.050100486725568771,89.385475158691406
6.0025000000000004,0.05197564885020256,
6.0049999999999999,0.053874850273132324,
6.0075000000000003,0.055725973099470139,
6.0099999999999998,0.059332054108381271,
6.0125000000000002,0.061062972992658615,
6.0149999999999997,0.062721773982048035,
6.0175000000000001,0.064380571246147156,
6.0199999999999996,0.067842409014701843,
6.0225,0.069813728332519531,
6.0250000000000004,0.07209758460521698,
6.0274999999999999,0.074742041528224945,
6.0300000000000002,0.081305108964443207,
6.0324999999999998,0.085175633430480957,
6.0350000000000001,0.089358687400817871,
6.0374999999999996,0.093782149255275726,
6.04,0.10277330875396729,
6.0425000000000004,0.10719677060842514,
6.0449999999999999,0.1115240678191185,
6.0475000000000003,0.11577924340963364,
6.0499999999999998,0.12426555156707764,
6.0525000000000002,0.12871305644512177,
6.0549999999999997,0.13340096175670624,
6.0575000000000001,0.1383773535490036,
6.0599999999999996,0.14921963214874268,
6.0625,0.15491724014282227,
6.0650000000000004,0.16068696975708008,
6.0674999999999999,0.16638457775115967,
6.0700000000000003,0.17715474963188171,
6.0724999999999998,0.18210709095001221,
6.0750000000000002,0.18672287464141846,
6.0774999999999997,0.19105017185211182,
6.0800000000000001,0.19910375773906708,
6.0824999999999996,0.20292620360851288,
6.085,0.20665249228477478,
6.0875000000000004,0.21028260886669159,
6.0899999999999999,0.2169899195432663,
6.0925000000000002,0.21989881992340088,
6.0949999999999998,0.22235095500946045,
6.0975000000000001,0.22420208156108856,
6.0999999999999996,0.22576472163200378,
6.1025,0.22525987029075623,
6.1050000000000004,0.22384147346019745,
6.1074999999999999,0.2214614599943161,
6.1100000000000003,0.2138165682554245,
6.1124999999999998,0.20857572555541992,
6.1150000000000002,0.20246943831443787,
6.1174999999999997,0.19554576277732849,
6.1200000000000001,0.17948667705059052,
6.1224999999999996,0.17049551010131836,
6.125,0.16092738509178162,
6.1275000000000004,0.15090247988700867,
6.1299999999999999,0.12948235869407654,
6.1325000000000003,0.11820733547210693,
6.1349999999999998,0.10661979764699936,
6.1375000000000002,0.094791851937770844,
6.1399999999999997,0.070871517062187195,
6.1425000000000001,0.059091649949550629,
6.1449999999999996,0.047672390937805176,
6.1475,0.036854147911071777,
6.1500000000000004,0.017934244126081467,
6.1524999999999999,0.010193189606070518,
6.1550000000000002,0.0037743649445474148,
6.1574999999999998,-0.0013222297420725226,
6.1600000000000001,-0.0078852977603673935,
6.1624999999999996,-0.0097364187240600586,
6.165,-0.011010567657649517,
6.1675000000000004,-0.011948148719966412,
6.1699999999999999,-0.013991594314575195,
6.1725000000000003,-0.015434026718139648,
6.1749999999999998,-0.017261108383536339,
6.1775000000000002,-0.019424756988883018,
6.1799999999999997,-0.024304986000061035,
6.1825000000000001,-0.026660960167646408,
6.1849999999999996,-0.028704404830932617,
6.1875,-0.03031512163579464,
6.1900000000000004,-0.032021999359130859,
6.1924999999999999,-0.032190285623073578,
6.1950000000000003,-0.032046042382717133,
6.1974999999999998,-0.031733512878417969,
6.2000000000000002,-0.031252704560756683,
6.2024999999999997,-0.031348865479230881,
6.2050000000000001,-0.031757555902004242,
6.2074999999999996,-0.032430689781904221,
6.21,-0.034353934228420258,
6.2125000000000004,-0.035315554589033127,
6.2149999999999999,-0.036108892410993576,
6.2175000000000002,-0.03658970445394516,
6.2199999999999998,-0.036373339593410492,
6.2225000000000001,-0.03567616268992424,
6.2249999999999996,-0.034690499305725098,
6.2275,-0.03351251408457756,
6.2300000000000004,-0.031276743859052658,
6.2324999999999999,-0.030531486496329308,
6.2350000000000003,-0.030194919556379318,
6.2374999999999998,-0.030267041176557541,
6.2400000000000002,-0.031709473580121994,
6.2424999999999997,-0.032839380204677582,
6.2450000000000001,-0.034041404724121094,
6.2474999999999996,-0.035147272050380707,
6.25,-0.036373339593410492,
6.2525000000000004,-0.036277174949645996,
6.2549999999999999,-0.035628080368041992,
6.2575000000000003,-0.034498177468776703,
6.2599999999999998,-0.031132500618696213,
6.2625000000000002,-0.0292332973331213,
6.2649999999999997,-0.027430256828665733,
6.2675000000000001,-0.025867622345685959,
6.2699999999999996,-0.023800134658813477,
6.2725,-0.023343365639448166,
6.2750000000000004,-0.023223161697387695,
6.2774999999999999,-0.023271244019269943,
6.2800000000000002,-0.023439526557922363,
6.2824999999999998,-0.023247202858328819,
6.2850000000000001,-0.022766392678022385,
6.2874999999999996,-0.021973054856061935,
6.29,-0.019569000229239464,
6.2925000000000004,-0.018174648284912109,
6.2949999999999999,-0.016804337501525879,
6.2975000000000003,-0.015626352280378342,
6.2999999999999998,-0.014159878715872765,
6.3025000000000002,-0.013919472694396973,
6.3049999999999997,-0.013991594314575195,
6.3075000000000001,-0.014256040565669537,
6.3099999999999996,-0.014881094917654991,
6.3125,-0.015001296997070312,
6.3150000000000004,-0.014857053756713867,
6.3174999999999999,-0.014424324035644531,
6.3200000000000003,-0.012693405151367188,
6.3224999999999998,-0.011539459228515625,
6.3250000000000002,-0.010337432846426964,
6.3274999999999997,-0.0092075271531939507,
6.3300000000000001,-0.0075487298890948296,
6.3324999999999996,-0.0071160001680254936,
6.335,-0.0069717569276690483,
6.3375000000000004,-0.007091959472745657,
6.3399999999999999,-0.0079333782196044922,
6.3425000000000002,-0.0085103511810302734,
6.3449999999999998,-0.009039243683218956,
6.3475000000000001,-0.0094960136339068413,
6.3499999999999996,-0.0099047031253576279,
6.3525,-0.0097845001146197319,
6.3550000000000004,-0.0094238920137286186,
6.3574999999999999,-0.0088469190523028374,
6.3600000000000003,-0.0072362027131021023,
6.3624999999999998,-0.0063947839662432671,
6.3650000000000002,-0.0056254863739013672,
6.3674999999999997,-0.0050244731828570366,
6.3700000000000001,-0.0046638650819659233,
6.3724999999999996,-0.0049763917922973633,
6.375,-0.0056014461442828178,
6.3775000000000004,-0.0064669055864214897,
6.3799999999999999,-0.0085824728012084961,
6.3825000000000003,-0.0096162166446447372,
6.3849999999999998,-0.010505716316401958,
6.3875000000000002,-0.011130770668387413,
6.3899999999999997,-0.011611580848693848,
6.3925000000000001,-0.011491378769278526,
6.3949999999999996,-0.011202892288565636,
6.3975,-0.010794202797114849,
6.4000000000000004,-0.0099527835845947266,
6.4024999999999999,-0.0095921754837036133,
6.4050000000000002,-0.009255608543753624,
6.4074999999999998,-0.0089430809020996094,
6.4100000000000001,-0.0080776214599609375,
6.4124999999999996,-0.0074044866487383842,
6.415,-0.0065149865113198757,
6.4175000000000004,-0.0053850812837481499,
6.4199999999999999,-0.0023800134658813477,
6.4225000000000003,-0.00060101354029029608,
6.4249999999999998,0.0012741487007588148,
6.4275000000000002,0.0031733512878417969,
6.4299999999999997,0.006659229751676321,
6.4325000000000001,0.0081016626209020615,
6.4349999999999996,0.0092796487733721733,
6.4375,0.010121067985892296,
6.4400000000000004,0.010698040947318077,
6.4424999999999999,0.010409554466605186,
6.4450000000000003,0.0097604598850011826,
6.4474999999999998,0.0088469190523028374,
6.4500000000000002,0.0067553920671343803,
6.4524999999999997,0.0059620542451739311,
6.4550000000000001,0.0056254863739013672,
6.4574999999999996,0.0059860944747924805,
6.46,0.0095921754837036133,
6.4625000000000004,0.013029973022639751,
6.4649999999999999,0.017501514405012131,
6.4675000000000002,0.022862553596496582,
6.4699999999999998,0.034834742546081543,
6.4725000000000001,0.040652554482221603,
6.4749999999999996,0.045725107192993164,
6.4775,0.049643717706203461,
6.4800000000000004,0.052793025970458984,
6.4824999999999999,0.051759283989667892,
6.4850000000000003,0.049018662422895432,
6.4874999999999998,0.044811569154262543,
6.4900000000000002,0.03334423154592514,
6.4924999999999997,0.026901364326477051,
6.4950000000000001,0.020506581291556358,
6.4974999999999996,0.014472405426204205,
6.5,0.0043753786012530327,
6.5025000000000004,0.00043272972106933594,
6.5049999999999999,-0.0028127431869506836,
6.5075000000000003,-0.0055293245241045952,
6.5099999999999998,-0.0099527835845947266,
6.5125000000000002,-0.011924108490347862,
6.5149999999999997,-0.01384735107421875,
6.5175000000000001,-0.015650391578674316,
6.5199999999999996,-0.018511217087507248,
6.5225,-0.019136270508170128,
6.5250000000000004,-0.018992027267813683,
6.5274999999999999,-0.017886161804199219,
6.5300000000000002,-0.012741486541926861,
6.5324999999999998,-0.0090632839128375053,
6.5350000000000001,-0.0052167973481118679,
6.5374999999999996,-0.0018511216621845961,
6.54,0.00028848648071289062,
6.5425000000000004,-0.0026204190216958523,
6.5449999999999999,-0.0090873241424560547,
6.5475000000000003,-0.01954495906829834,
6.5499999999999998,-0.051951609551906586,
6.5525000000000002,-0.072554349899291992,
6.5549999999999997,-0.094287000596523285,
6.5575000000000001,-0.11520227044820786,
6.5599999999999996,-0.14494042098522186,
6.5625,-0.14840225875377655,
6.5650000000000004,-0.14078140258789062,
6.5674999999999999,-0.11979401111602783,
6.5700000000000003,-0.031901799142360687,
6.5724999999999998,0.035580001771450043,
6.5750000000000002,0.11724571883678436,
6.5774999999999997,0.21033069491386414,
6.5800000000000001,0.41356942057609558,
6.5824999999999996,0.5124962329864502,
6.585,0.6012539267539978,
6.5875000000000004,0.67349576950073242,
6.5899999999999999,0.74722808599472046,
6.5925000000000002,0.74184298515319824,
6.5949999999999998,0.70698422193527222,
6.5975000000000001,0.6445268988609314,
6.5999999999999996,0.45470279455184937,
6.6025,0.34039002656936646,
6.6050000000000004,0.22328853607177734,
6.6074999999999999,0.11099517345428467,
6.6100000000000003,-0.073876582086086273,
6.6124999999999998,-0.13799270987510681,
6.6150000000000002,-0.18085698783397675,
6.6174999999999997,-0.20328681170940399,
6.6200000000000001,-0.19763728976249695,
6.6224999999999996,-0.17746727168560028,
6.625,-0.1515275239944458,
6.6275000000000004,-0.1237366646528244,
6.6299999999999999,-0.074357390403747559,
6.6325000000000003,-0.056110620498657227,
6.6349999999999998,-0.04274408146739006,
6.6375000000000002,-0.033801000565290451,
6.6399999999999997,-0.025122364982962608,
6.6425000000000001,-0.02307891845703125,
6.6449999999999996,-0.021323960274457932,
6.6475,-0.019136270508170128,
6.6500000000000004,-0.012621283531188965,
6.6524999999999999,-0.0083420677110552788,
6.6550000000000002,-0.0036782026290893555,
6.6574999999999998,0.0010577838402241468,
6.6600000000000001,0.0099527835845947266,
6.6624999999999996,0.01384735107421875,
6.665,0.017333230003714561,
6.6675000000000004,0.020434459671378136,
6.6699999999999999,0.025723379105329514,
6.6725000000000003,0.028007229790091515,
6.6749999999999998,0.030050676316022873,
6.6775000000000002,0.031853716820478439,
6.6799999999999997,0.034714542329311371,
6.6825000000000001,0.035772323608398438,
6.6849999999999996,0.036613743752241135,
6.6875,0.037310920655727386,
6.6900000000000004,0.038657188415527344,
6.6924999999999999,0.039498608559370041,
6.6950000000000003,0.040556393563747406,
6.6974999999999998,0.041902661323547363,
6.7000000000000002,0.045436620712280273,
6.7024999999999997,0.047576230019330978,
6.7050000000000001,0.049860082566738129,
6.7074999999999996,0.052192013710737228,
6.71,0.056831836700439453,
6.7125000000000004,0.059019528329372406,
6.7149999999999999,0.061135094612836838,
6.7175000000000002,0.06320258229970932,
6.7199999999999998,0.067409679293632507,
6.7225000000000001,0.06964544951915741,
6.7249999999999996,0.072025462985038757,
6.7275,0.074573755264282227,
6.7300000000000004,0.080054998397827148,
6.7324999999999999,0.082939863204956055,
6.7350000000000003,0.085896849632263184,
6.7374999999999998,0.088925957679748535,
6.7400000000000002,0.095344781875610352,
6.7424999999999997,0.098854705691337585,
6.7450000000000001,0.10267715156078339,
6.7474999999999996,0.10683616250753403,
6.75,0.11640429496765137,
6.7525000000000004,0.12174129486083984,
6.7549999999999999,0.12734274566173553,
6.7575000000000003,0.1330643892288208,
6.7599999999999998,0.14441153407096863,
6.7625000000000002,0.14982065558433533,
6.7649999999999997,0.15496532618999481,
6.7675000000000001,0.15986959636211395,
6.7699999999999996,0.169149249792099,
6.7725,0.17374098300933838,
6.7750000000000004,0.1783808171749115,
6.7774999999999999,0.18314084410667419,
6.7800000000000002,0.19304554164409637,
6.7824999999999998,0.19802193343639374,
6.7850000000000001,0.20283004641532898,
6.7874999999999996,0.20732562243938446,
6.79,0.21485030651092529,
6.7925000000000004,0.21766304969787598,
6.7949999999999999,0.21980266273021698,
6.7975000000000003,0.22126913070678711,
6.7999999999999998,0.22235095500946045,
6.8025000000000002,0.22203843295574188,
6.8049999999999997,0.22119700908660889,
6.8075000000000001,0.21975457668304443,
6.8099999999999996,0.21489839255809784,
6.8125,0.21122018992900848,
6.8150000000000004,0.20655632019042969,
6.8174999999999999,0.20081064105033875,
6.8200000000000003,0.18585741519927979,
6.8224999999999998,0.17667393386363983,
6.8250000000000002,0.16650478541851044,
6.8274999999999997,0.15544614195823669,
6.8300000000000001,0.1314777135848999,
6.8324999999999996,0.11900067329406738,
6.835,0.10652363300323486,
6.8375000000000004,0.094214878976345062,
6.8399999999999999,0.070991717278957367,
6.8425000000000002,0.060413878411054611,
6.8449999999999998,0.050725542008876801,
6.8475000000000001,0.041950743645429611,
6.8499999999999996,0.027310054749250412,
6.8525,0.021347999572753906,
6.8550000000000004,0.016179284080862999,
6.8574999999999999,0.011587540619075298,
6.8600000000000003,0.0035099189262837172,
6.8624999999999998,-0.00033656758023425937,
6.8650000000000002,-0.0042551755905151367,
6.8674999999999997,-0.0083180274814367294,
6.8700000000000001,-0.016900500282645226,
6.8724999999999996,-0.021299919113516808,
6.875,-0.025603175163269043,
6.8775000000000004,-0.029593905434012413,
6.8799999999999999,-0.036084853112697601,
6.8825000000000003,-0.038272541016340256,
6.8849999999999998,-0.039666891098022461,
6.8875000000000002,-0.040243864059448242,
6.8899999999999997,-0.039258204400539398,
6.8925000000000001,-0.037935972213745117,
6.8949999999999996,-0.036325257271528244,
6.8975,-0.034618377685546875,
6.9000000000000004,-0.031733512878417969,
6.9024999999999999,-0.030844014137983322,
6.9050000000000002,-0.030435323715209961,
6.9074999999999998,-0.030555527657270432,
6.9100000000000001,-0.032238364219665527,
6.9124999999999996,-0.033560596406459808,
6.915,-0.035003028810024261,
6.9175000000000004,-0.036421418190002441,
6.9199999999999999,-0.038561027497053146,
6.9225000000000003,-0.03908991813659668,
6.9249999999999998,-0.039186082780361176,
6.9275000000000002,-0.03892163559794426,
6.9299999999999997,-0.0376715287566185,
6.9325000000000001,-0.037022434175014496,
6.9349999999999996,-0.036541622132062912,
6.9375,-0.036373339593410492,
6.9400000000000004,-0.037190716713666916,
6.9424999999999999,-0.038104258477687836,
6.9450000000000003,-0.03921012207865715,
6.9474999999999998,-0.040340028703212738,
6.9500000000000002,-0.041830539703369141,
6.9524999999999997,-0.041854582726955414,
6.9550000000000001,-0.041253566741943359,
6.9574999999999996,-0.040027499198913574,
6.96,-0.036108892410993576,
6.9625000000000004,-0.033776961266994476,
6.9649999999999999,-0.031469069421291351,
6.9675000000000002,-0.029449662193655968,
6.9699999999999998,-0.026781162247061729,
6.9725000000000001,-0.026300352066755295,
6.9749999999999996,-0.02632439136505127,
6.9775,-0.026733081787824631,
6.9800000000000004,-0.028127431869506836,
6.9824999999999999,-0.028752487152814865,
6.9850000000000003,-0.029137134552001953,
6.9874999999999998,-0.029185216873884201,
6.9900000000000002,-0.028175514191389084,
6.9924999999999997,-0.027165811508893967,
6.9950000000000001,-0.025915702804923058,
6.9974999999999996,-0.024521350860595703,
7,-0.021612446755170822,87.751373291015625
7.0025000000000004,-0.020242135971784592,
7.0049999999999999,-0.018992027267813683,
7.0075000000000003,-0.017886161804199219,
7.0099999999999998,-0.016059082001447678,
7.0125000000000002,-0.015313824638724327,
7.0149999999999997,-0.01461664866656065,
7.0175000000000001,-0.013967554084956646,
7.0199999999999996,-0.012573203071951866,
7.0225,-0.011803905479609966,
7.0250000000000004,-0.011010567657649517,
7.0274999999999999,-0.010193189606070518,
7.0300000000000002,-0.0087507572025060654,
7.0324999999999998,-0.0082459058612585068,
7.0350000000000001,-0.0080295410007238388,
7.0374999999999996,-0.0081257028505206108,
7.04,-0.009255608543753624,
7.0425000000000004,-0.010217229835689068,
7.0449999999999999,-0.011275013908743858,
7.0475000000000003,-0.012308756820857525,
7.0499999999999998,-0.013655027374625206,
7.0525000000000002,-0.013727148994803429,
7.0549999999999997,-0.013294419273734093,
7.0575000000000001,-0.012404918670654297,
7.0599999999999996,-0.0095681352540850639,
7.0625,-0.0079574193805456161,
7.0650000000000004,-0.0064188241958618164,
7.0674999999999999,-0.0051927566528320312,
7.0700000000000003,-0.0039907298050820827,
7.0724999999999998,-0.0041349730454385281,
7.0750000000000002,-0.0047119460068643093,
7.0774999999999997,-0.0056014461442828178,
7.0800000000000001,-0.0077891349792480469,
7.0824999999999996,-0.008822878822684288,
7.085,-0.0096162166446447372,
7.0875000000000004,-0.010169148445129395,
7.0899999999999999,-0.010457634925842285,
7.0925000000000002,-0.010265311226248741,
7.0949999999999998,-0.0099287433549761772,
7.0975000000000001,-0.0095200538635253906,
7.0999999999999996,-0.008822878822684288,
7.1025,-0.0085584325715899467,
7.1050000000000004,-0.0083901491016149521,
7.1074999999999999,-0.0082699460908770561,
7.1100000000000003,-0.0081737842410802841,
7.1124999999999998,-0.0081257028505206108,
7.1150000000000002,-0.0080295410007238388,
7.1174999999999997,-0.0079093379899859428,
7.1200000000000001,-0.0075727701187133789,
7.1224999999999996,-0.0074044866487383842,
7.125,-0.0072602434083819389,
7.1275000000000004,-0.0071640810929238796,
7.1299999999999999,-0.0072121620178222656,
7.1325000000000003,-0.0073564052581787109,
7.1349999999999998,-0.0075487298890948296,
7.1375000000000002,-0.0077650947496294975,
7.1399999999999997,-0.0081737842410802841,
7.1425000000000001,-0.0083180274814367294,
7.1449999999999996,-0.0083661079406738281,
7.1475,-0.0082939863204956055,
7.1500000000000004,-0.0077891349792480469,
7.1524999999999999,-0.0072602434083819389,
7.1550000000000002,-0.0065149865113198757,
7.1574999999999998,-0.0055533647537231445,
7.1600000000000001,-0.0027165811043232679,
7.1624999999999996,-0.00084141892148181796,
7.165,0.0013222297420725226,
7.1675000000000004,0.0037262837868183851,
7.1699999999999999,0.0088469190523028374,
7.1725000000000003,0.011323094367980957,
7.1749999999999998,0.013486742973327637,
7.1775000000000002,0.015169581398367882,
7.1799999999999997,0.016515851020812988,
7.1825000000000001,0.015962919220328331,
7.1849999999999996,0.014592608436942101,
7.1875,0.01247704029083252,
7.1900000000000004,0.0067794322967529297,
7.1924999999999999,0.0037743649445474148,
7.1950000000000003,0.0010818243026733398,
7.1974999999999998,-0.0008895000210031867,
7.2000000000000002,-0.0014424324035644531,
7.2024999999999997,0.00040868920041248202,
7.2050000000000001,0.0037984054069966078,
7.2074999999999996,0.0086545944213867188,
7.21,0.02182881161570549,
7.2125000000000004,0.029377540573477745,
7.2149999999999999,0.036950312554836273,
7.2175000000000002,0.044042270630598068,
7.2199999999999998,0.054812431335449219,
7.2225000000000001,0.057721339166164398,
7.2249999999999996,0.058706998825073242,
7.2275,0.05767325684428215,
7.2300000000000004,0.050004325807094574,
7.2324999999999999,0.043898027390241623,
7.2350000000000003,0.036782026290893555,
7.2374999999999998,0.029113095253705978,
7.2400000000000002,0.013799270614981651,
7.2424999999999997,0.0069477162323892117,
7.2450000000000001,0.00096162164118140936,
7.2474999999999996,-0.0039907298050820827,
7.25,-0.010842284187674522,
7.2525000000000004,-0.012957851402461529,
7.2549999999999999,-0.014448365196585655,
7.2575000000000003,-0.015506148338317871,
7.2599999999999998,-0.017140906304121017,
7.2625000000000002,-0.017910202965140343,
7.2649999999999997,-0.018631419166922569,
7.2675000000000001,-0.019208392128348351,
7.2699999999999996,-0.019352635368704796,
7.2725,-0.018607378005981445,
7.2750000000000004,-0.017285149544477463,
7.2774999999999999,-0.015458067879080772,
7.2800000000000002,-0.011659662239253521,
7.2824999999999998,-0.010794202797114849,
7.2850000000000001,-0.011515418998897076,
7.2874999999999996,-0.014592608436942101,
7.29,-0.030291080474853516,
7.2925000000000004,-0.04353741928935051,
7.2949999999999999,-0.060125391930341721,
7.2975000000000003,-0.079333782196044922,
7.2999999999999998,-0.12013058364391327,
7.3025000000000002,-0.13777634501457214,
7.3049999999999997,-0.15034954249858856,
7.3075000000000001,-0.15518169105052948,
7.3099999999999996,-0.13121327757835388,
7.3125,-0.098133489489555359,
7.3150000000000004,-0.049162905663251877,
7.3174999999999999,0.01584271714091301,
7.3200000000000003,0.18857400119304657,
7.3224999999999998,0.29031357169151306,
7.3250000000000002,0.39616405963897705,
7.3274999999999997,0.50021153688430786,
7.3300000000000001,0.6766931414604187,
7.3324999999999996,0.73643386363983154,
7.335,0.77013874053955078,
7.3375000000000004,0.77446603775024414,
7.3399999999999999,0.69263201951980591,
7.3425000000000002,0.6110384464263916,
7.3449999999999998,0.50898635387420654,
7.3475000000000001,0.39354366064071655,
7.3499999999999996,0.15424410998821259,
7.3525,0.045652985572814941,
7.3550000000000004,-0.047287743538618088,
7.3574999999999999,-0.12053927034139633,
7.3600000000000003,-0.20266175270080566,
7.3624999999999998,-0.21379253268241882,
7.3650000000000002,-0.20910462737083435,
7.3674999999999997,-0.19285321235656738,
7.3700000000000001,-0.14308929443359375,
7.3724999999999996,-0.11710147559642792,
7.375,-0.093902349472045898,
7.3775000000000004,-0.074862241744995117,
7.3799999999999999,-0.050028365105390549,
7.3825000000000003,-0.043032567948102951,
7.3849999999999998,-0.038320623338222504,
7.3875000000000002,-0.034858785569667816,
7.3899999999999997,-0.028752487152814865,
7.3925000000000001,-0.025338729843497276,
7.3949999999999996,-0.021636486053466797,
7.3975,-0.01783808134496212,
7.4000000000000004,-0.014135837554931641,
7.4024999999999999,-0.0078852977603673935,
7.4050000000000002,-0.0055052838288247585,
7.4074999999999998,-0.0035580000840127468,
7.4100000000000001,-0.00048081082059070468,
7.4124999999999996,0.00091354054166004062,
7.415,0.0023319325409829617,
7.4175000000000004,0.0037984054069966078,
7.4199999999999999,0.0067553920671343803,
7.4225000000000003,0.0081497430801391602,
7.4249999999999998,0.009447932243347168,
7.4275000000000002,0.010625919327139854,
7.4299999999999997,0.012933811172842979,
7.4325000000000001,0.014232000336050987,
7.4349999999999996,0.015722513198852539,
7.4375,0.017477473244071007,
7.4400000000000004,0.02182881161570549,
7.4424999999999999,0.024329027161002159,
7.4450000000000003,0.026901364326477051,
7.4474999999999998,0.029473703354597092,
7.4500000000000002,0.03413756936788559,
7.4524999999999997,0.036156974732875824,
7.4550000000000001,0.03796001523733139,
7.4574999999999996,0.039594769477844238,
7.46,0.041157405823469162,
7.4625000000000004,0.044450961053371429,
7.4649999999999999,0.046350162476301193,
7.4675000000000002,0.048489771783351898,
7.4699999999999998,0.053466163575649261,
7.4725000000000001,0.056230824440717697,
7.4749999999999996,0.059163771569728851,
7.4775,0.06216883659362793,
7.4800000000000004,0.068371295928955078,
7.4824999999999999,0.071544647216796875,
7.4850000000000003,0.074838206171989441,
7.4874999999999998,0.078251957893371582,
7.4900000000000002,0.085680484771728516,
7.4924999999999997,0.089767381548881531,
7.4950000000000001,0.09409467875957489,
7.4974999999999996,0.098686419427394867,
7.5,0.10832667350769043,
7.5025000000000004,0.11325498670339584,
7.5049999999999999,0.11818329989910126,
7.5075000000000003,0.12306352704763412,
7.5099999999999998,0.13263165950775146,
7.5125000000000002,0.13736765086650848,
7.5149999999999997,0.14217576384544373,
7.5175000000000001,0.14710406959056854,
7.5199999999999996,0.15224874019622803,
7.5225,0.16325931251049042,
7.5250000000000004,0.16907712817192078,
7.5274999999999999,0.17501513659954071,
7.5300000000000002,0.18657863140106201,
7.5324999999999998,0.19186756014823914,
7.5350000000000001,0.19657950103282928,
7.5374999999999996,0.20064234733581543,
7.54,0.20650824904441833,
7.5425000000000004,0.20833532512187958,
7.5449999999999999,0.20951330661773682,
7.5475000000000003,0.21011433005332947,
7.5499999999999998,0.20968160033226013,
7.5525000000000002,0.20867189764976501,
7.5549999999999997,0.20701310038566589,
7.5575000000000001,0.204585000872612,
7.5599999999999996,0.19686798751354218,
7.5625,0.19129058718681335,
7.5650000000000004,0.1844390332698822,
7.5674999999999999,0.17631332576274872,
7.5700000000000003,0.15650391578674316,
7.5724999999999998,0.14510869979858398,
7.5750000000000002,0.1329682320356369,
7.5774999999999997,0.12032290548086166,
7.5800000000000001,0.094407200813293457,
7.5824999999999996,0.081545516848564148,
7.585,0.068948268890380859,
7.5875000000000004,0.056783758103847504,
7.5899999999999999,0.034209690988063812,
7.5925000000000002,0.023944377899169922,
7.5949999999999998,0.014472405426204205,
7.5975000000000001,0.0058658919297158718,
7.5999999999999996,-0.0087988376617431641,
7.6025,-0.014881094917654991,
7.6050000000000004,-0.020194053649902344,
7.6074999999999999,-0.024809837341308594,
7.6100000000000003,-0.032478772103786469,
7.6124999999999998,-0.035748284310102463,
7.6150000000000002,-0.03875335305929184,
7.6174999999999997,-0.041566096246242523,
7.6200000000000001,-0.046758852899074554,
7.6224999999999996,-0.049114823341369629,
7.625,-0.051254432648420334,
7.6275000000000004,-0.053153634071350098,
7.6299999999999999,-0.056110620498657227,
7.6325000000000003,-0.057144366204738617,
7.6349999999999998,-0.057865582406520844,
7.6375000000000002,-0.058346390724182129,
7.6399999999999997,-0.058779120445251465,
7.6425000000000001,-0.058827202767133713,
7.6449999999999996,-0.058851242065429688,
7.6475,-0.058899324387311935,
7.6500000000000004,-0.059163771569728851,
7.6524999999999999,-0.059452258050441742,
7.6550000000000002,-0.059812866151332855,
7.6574999999999998,-0.060245595872402191,
7.6600000000000001,-0.061279337853193283,
7.6624999999999996,-0.061784189194440842,
7.665,-0.062216918915510178,
7.6675000000000004,-0.062529444694519043,
