Data Set 1:Time(s),Data Set 1:EKG(mV),Data Set 1:Heart Rate(bpm)
0,0.12070755660533905,64.748207092285156
0.0025000000000000001,0.11782269179821014,
0.0050000000000000001,0.11409640312194824,
0.0074999999999999997,0.10952870547771454,
0.01,0.10414361953735352,
0.012500000000000001,0.097869038581848145,
0.014999999999999999,0.082723498344421387,
0.017500000000000002,0.064164206385612488,
0.02,0.053802728652954102,
0.022499999999999999,0.042960446327924728,
0.025000000000000001,0.031805634498596191,
0.0275,0.0093998517841100693,
0.029999999999999999,-0.0014424324035644531,
0.032500000000000001,-0.011779865249991417,
0.035000000000000003,-0.021540325134992599,
0.037499999999999999,-0.038945674896240234,
0.040000000000000001,-0.046614609658718109,
0.042500000000000003,-0.053610406816005707,
0.044999999999999998,-0.059981148689985275,
0.047500000000000001,-0.071232125163078308,
0.050000000000000003,-0.076208516955375671,
0.052499999999999998,-0.080800257623195648,
0.055,-0.085031390190124512,
0.057500000000000002,-0.092556081712245941,
0.059999999999999998,-0.095873676240444183,
0.0625,-0.098926827311515808,
0.065000000000000002,-0.10176360607147217,
0.067500000000000004,-0.1068602055311203,
0.070000000000000007,-0.1091921329498291,
0.072499999999999995,-0.11137982457876205,
0.074999999999999997,-0.11337518692016602,
0.077499999999999999,-0.11666874587535858,
0.080000000000000002,-0.11779864877462387,
0.082500000000000004,-0.11854390799999237,
0.085000000000000006,-0.11885643005371094,
0.087499999999999994,-0.11827945709228516,
0.089999999999999997,-0.11755824089050293,
0.092499999999999999,-0.11669278144836426,
0.095000000000000001,-0.11585136502981186,
0.097500000000000003,-0.11481761932373047,
0.10000000000000001,-0.11476954072713852,
0.10249999999999999,-0.11503398418426514,
0.105,-0.11561095714569092,
0.1075,-0.11702935397624969,
0.11,-0.1175822839140892,
0.1125,-0.11784672737121582,
0.115,-0.11765440553426743,
0.11749999999999999,-0.11587540805339813,
0.12,-0.11433681100606918,
0.1225,-0.11248569190502167,
0.125,-0.11046628654003143,
0.1275,-0.10647555440664291,
0.13,-0.10479271411895752,
0.13250000000000001,-0.10342240333557129,
0.13500000000000001,-0.10243674367666245,
0.13750000000000001,-0.10161936283111572,
0.14000000000000001,-0.10171552747488022,
0.14249999999999999,-0.10207613557577133,
0.14499999999999999,-0.10262906551361084,
0.14749999999999999,-0.10385513305664062,
0.14999999999999999,-0.10435998439788818,
0.1525,-0.10464847087860107,
0.155,-0.1046244353055954,
0.1575,-0.10356664657592773,
0.16,-0.10243674367666245,
0.16250000000000001,-0.10094623267650604,
0.16500000000000001,-0.099119149148464203,
0.16750000000000001,-0.094695687294006348,
0.17000000000000001,-0.092267595231533051,
0.17249999999999999,-0.08981546014547348,
0.17499999999999999,-0.087411403656005859,
0.17749999999999999,-0.083180271089076996,
0.17999999999999999,-0.081497430801391602,
0.1825,-0.080223284661769867,
0.185,-0.079357825219631195,
0.1875,-0.079045295715332031,
0.19,-0.079478025436401367,
0.1925,-0.080223284661769867,
0.19500000000000001,-0.081088744103908539,
0.19750000000000001,-0.082675419747829437,
0.20000000000000001,-0.083060070872306824,
0.20250000000000001,-0.082963906228542328,
0.20499999999999999,-0.082314811646938324,
0.20749999999999999,-0.079333782196044922,
0.20999999999999999,-0.077170133590698242,
0.21249999999999999,-0.074742041528224945,
0.215,-0.072241827845573425,
0.2175,-0.067794322967529297,
0.22,-0.066135525703430176,
0.2225,-0.064957544207572937,
0.22500000000000001,-0.064308449625968933,
0.22750000000000001,-0.064212284982204437,
0.23000000000000001,-0.064572893083095551,
0.23250000000000001,-0.06502966582775116,
0.23499999999999999,-0.065462395548820496,
0.23749999999999999,-0.065750882029533386,
0.23999999999999999,-0.065871082246303558,
0.24249999999999999,-0.065678760409355164,
0.245,-0.065414309501647949,
0.2475,-0.064765214920043945,
0.25,-0.064476728439331055,
0.2525,-0.06423632800579071,
0.255,-0.064019963145256042,
0.25750000000000001,-0.063611268997192383,
0.26000000000000001,-0.063346825540065765,
0.26250000000000001,-0.062986217439174652,
0.26500000000000001,-0.062505409121513367,
0.26750000000000002,-0.06103893369436264,
0.27000000000000002,-0.059981148689985275,
0.27250000000000002,-0.058658920228481293,
0.27500000000000002,-0.057120323181152344,
0.27750000000000002,-0.053418081253767014,
0.28000000000000003,-0.051398675888776779,
0.28249999999999997,-0.049379270523786545,
0.28499999999999998,-0.04752814769744873,
0.28749999999999998,-0.044667325913906097,
0.28999999999999998,-0.043873988091945648,
0.29249999999999998,-0.043585501611232758,
0.29499999999999998,-0.043801866471767426,
0.29749999999999999,-0.045604906976222992,
0.29999999999999999,-0.047047339379787445,
0.30249999999999999,-0.048754215240478516,
0.30499999999999999,-0.05060533806681633,
0.3075,-0.054163336753845215,
0.31,-0.055581729859113693,
0.3125,-0.056543350219726562,
0.315,-0.056831836700439453,
0.3175,-0.054716270416975021,
0.32000000000000001,-0.052047770470380783,
0.32250000000000001,-0.048201285302639008,
0.32500000000000001,-0.043272972106933594,
0.32750000000000001,-0.031036337837576866,
0.33000000000000002,-0.024401148781180382,
0.33250000000000002,-0.018006365746259689,
0.33500000000000002,-0.012308756820857525,
0.33750000000000002,-0.0045436620712280273,
0.34000000000000002,-0.0030050675850361586,
0.34250000000000003,-0.0031973919831216335,
0.34499999999999997,-0.0050004324875771999,
0.34749999999999998,-0.012549161911010742,
0.34999999999999998,-0.017669796943664551,
0.35249999999999998,-0.023175081238150597,
0.35499999999999998,-0.028752487152814865,
0.35749999999999998,-0.039065878838300705,
0.35999999999999999,-0.043489336967468262,
0.36249999999999999,-0.04735986515879631,
0.36499999999999999,-0.050725542008876801,
0.36749999999999999,-0.056206785142421722,
0.37,-0.05858679860830307,
0.3725,-0.060798525810241699,
0.375,-0.062914095818996429,
0.3775,-0.066664420068264008,
0.38,-0.068034730851650238,
0.38250000000000001,-0.068828068673610687,
0.38500000000000001,-0.068804025650024414,
0.38750000000000001,-0.065750882029533386,
0.39000000000000001,-0.062673687934875488,
0.39250000000000002,-0.058851242065429688,
0.39500000000000002,-0.054668188095092773,
0.39750000000000002,-0.048105120658874512,
0.40000000000000002,-0.047407947480678558,
0.40250000000000002,-0.049619674682617188,
0.40500000000000003,-0.055509608238935471,
0.40749999999999997,-0.080079041421413422,
0.40999999999999998,-0.098590254783630371,
0.41249999999999998,-0.12037098407745361,
0.41499999999999998,-0.14405092597007751,
0.41749999999999998,-0.1893913745880127,
0.41999999999999998,-0.20624379813671112,
0.42249999999999999,-0.21557152271270752,
0.42499999999999999,-0.21468202769756317,
0.42749999999999999,-0.17263512313365936,
0.42999999999999999,-0.12803992629051208,
0.4325,-0.06678462028503418,
0.435,0.010481676086783409,
0.4375,0.20422439277172089,
0.44,0.31300783157348633,
0.4425,0.42263269424438477,
0.44500000000000001,0.5267522931098938,
0.44750000000000001,0.69200694561004639,
0.45000000000000001,0.74109774827957153,
0.45250000000000001,0.76179665327072144,
0.45500000000000002,0.75186789035797119,
0.45750000000000002,0.64257961511611938,
0.46000000000000002,0.55019181966781616,
0.46250000000000002,0.44056695699691772,
0.46500000000000002,0.32125374674797058,
0.46750000000000003,0.085488162934780121,
0.46999999999999997,-0.016660094261169434,
0.47249999999999998,-0.10118663311004639,
0.47499999999999998,-0.16511043906211853,
0.47749999999999998,-0.2299477756023407,
0.47999999999999998,-0.23485204577445984,
0.48249999999999998,-0.22617340087890625,
0.48499999999999999,-0.20833532512187958,
0.48749999999999999,-0.16186496615409851,
0.48999999999999999,-0.13993999361991882,
0.49249999999999999,-0.12166917324066162,
0.495,-0.10794202983379364,
0.4975,-0.093205176293849945,
0.5,-0.090392433106899261,
0.50249999999999995,-0.089094243943691254,
0.505,-0.088180705904960632,
0.50749999999999995,-0.084598660469055176,
0.51000000000000001,-0.081208944320678711,
0.51249999999999996,-0.076785489916801453,
0.51500000000000001,-0.071544647216796875,
0.51749999999999996,-0.060053270310163498,
0.52000000000000002,-0.054451823234558105,
0.52249999999999996,-0.049307148903608322,
0.52500000000000002,-0.04473944753408432,
0.52749999999999997,-0.037647485733032227,
0.53000000000000003,-0.035099189728498459,
0.53249999999999997,-0.033199988305568695,
0.53500000000000003,-0.031877756118774414,
0.53749999999999998,-0.030675729736685753,
0.54000000000000004,-0.03060360811650753,
0.54249999999999998,-0.030699770897626877,
0.54500000000000004,-0.030819972977042198,
0.54749999999999999,-0.030579566955566406,
0.55000000000000004,-0.029954513534903526,
0.55249999999999999,-0.02889673039317131,
0.55500000000000005,-0.027382176369428635,
0.5575,-0.023151040077209473,
0.56000000000000005,-0.020602744072675705,
0.5625,-0.017934244126081467,
0.56499999999999995,-0.015265743248164654,
0.5675,-0.010145108215510845,
0.56999999999999995,-0.0077650947496294975,
0.57250000000000001,-0.0054812431335449219,
0.57499999999999996,-0.0032214324455708265,
0.57750000000000001,0.001466472982428968,
0.57999999999999996,0.0039907298050820827,
0.58250000000000002,0.0066832704469561577,
0.58499999999999996,0.0095200538635253906,
0.58750000000000002,0.015482108108699322,
0.58999999999999997,0.018559297546744347,
0.59250000000000003,0.02170860767364502,
0.59499999999999997,0.024930041283369064,
0.59750000000000003,0.031901799142360687,
0.59999999999999998,0.035748284310102463,
0.60250000000000004,0.039907298982143402,
0.60499999999999998,0.044378839433193207,
0.60750000000000004,0.054067175835371017,
0.60999999999999999,0.059115689247846603,
0.61250000000000004,0.064116120338439941,
0.61499999999999999,0.068972311913967133,
0.61750000000000005,0.077939435839653015,
0.62,0.082026325166225433,
0.62250000000000005,0.085968971252441406,
0.625,0.08981546014547348,
0.62749999999999995,0.097893081605434418,
0.63,0.102292500436306,
0.63249999999999995,0.10698040574789047,
0.63500000000000001,0.11195679754018784,
0.63749999999999996,0.12236635386943817,
0.64000000000000001,0.12751102447509766,
0.64249999999999996,0.13243934512138367,
0.64500000000000002,0.13698300719261169,
0.64749999999999996,0.14467597007751465,
0.65000000000000002,0.14768104255199432,
0.65249999999999997,0.15010914206504822,
0.65500000000000003,0.15193621814250946,
0.65749999999999997,0.15357097983360291,
0.66000000000000003,0.15330652892589569,
0.66249999999999998,0.15220066905021667,
0.66500000000000004,0.15025338530540466,
0.66749999999999998,0.14381051063537598,
0.67000000000000004,0.13938705623149872,
0.67249999999999999,0.13429045677185059,
0.67500000000000004,0.12864093482494354,
0.67749999999999999,0.11604368686676025,
0.68000000000000005,0.1091921329498291,
0.6825,0.10190784931182861,
0.68500000000000005,0.094118714332580566,
0.6875,0.076641246676445007,
0.68999999999999995,0.06678462028503418,
0.6925,0.056158702820539474,
0.69499999999999995,0.044883690774440765,
0.69750000000000001,0.021396081894636154,
0.69999999999999996,0.0098325815051794052,
0.70250000000000001,-0.0010818243026733398,
0.70499999999999996,-0.011010567657649517,
0.70750000000000002,-0.027045607566833496,
0.70999999999999996,-0.033007662743330002,
0.71250000000000002,-0.037719607353210449,
0.71499999999999997,-0.041469931602478027,
0.71750000000000003,-0.047383904457092285,
0.71999999999999997,-0.050220690667629242,
0.72250000000000003,-0.053345959633588791,
0.72499999999999998,-0.056879919022321701,
0.72750000000000004,-0.065077744424343109,
0.72999999999999998,-0.069429084658622742,
0.73250000000000004,-0.073660217225551605,
0.73499999999999999,-0.077458620071411133,
0.73750000000000004,-0.082939863204956055,
0.73999999999999999,-0.084358260035514832,
0.74250000000000005,-0.084887146949768066,
0.745,-0.084622703492641449,
0.74750000000000005,-0.082435011863708496,
0.75,-0.080944500863552094,
0.75249999999999995,-0.07950206845998764,
0.755,-0.078276000916957855,
0.75749999999999995,-0.076785489916801453,
0.76000000000000001,-0.076569125056266785,
0.76249999999999996,-0.076665282249450684,
0.76500000000000001,-0.076929733157157898,
0.76749999999999996,-0.077530741691589355,
0.77000000000000002,-0.077650949358940125,
0.77249999999999996,-0.077578827738761902,
0.77500000000000002,-0.077290341258049011,
0.77749999999999997,-0.076400838792324066,
0.78000000000000003,-0.07601618766784668,
0.78249999999999997,-0.075871944427490234,
0.78500000000000003,-0.076088309288024902,
0.78749999999999998,-0.077867314219474792,
0.79000000000000004,-0.079429946839809418,
0.79249999999999998,-0.081281065940856934,
0.79500000000000004,-0.083276435732841492,
0.79749999999999999,-0.086834430694580078,
0.80000000000000004,-0.087940298020839691,
0.80249999999999999,-0.0883970707654953,
0.80500000000000005,-0.08810858428478241,
0.8075,-0.085295841097831726,
0.81000000000000005,-0.083011984825134277,
0.8125,-0.080343484878540039,
0.81499999999999995,-0.077578827738761902,
0.8175,-0.07248222827911377,
0.81999999999999995,-0.070534944534301758,
0.82250000000000001,-0.069116555154323578,
0.82499999999999996,-0.068251095712184906,
0.82750000000000001,-0.067938566207885742,
0.82999999999999996,-0.068227052688598633,
0.83250000000000002,-0.068587660789489746,
0.83499999999999996,-0.06890019029378891,
0.83750000000000002,-0.06885211169719696,
0.83999999999999997,-0.068371295928955078,
0.84250000000000003,-0.067602001130580902,
0.84499999999999997,-0.066568255424499512,
0.84750000000000003,-0.06423632800579071,
0.84999999999999998,-0.063130460679531097,
0.85250000000000004,-0.062144797295331955,
0.85499999999999998,-0.061327420175075531,
0.85750000000000004,-0.060197513550519943,
0.85999999999999999,-0.059740744531154633,
0.86250000000000004,-0.059259932488203049,
0.86499999999999999,-0.058706998825073242,
0.86750000000000005,-0.057048201560974121,
0.87,-0.055942337960004807,
0.87250000000000005,-0.054644148796796799,
0.875,-0.05322575569152832,
0.87749999999999995,-0.050292812287807465,
0.88,-0.048874419182538986,
0.88249999999999995,-0.047576230019330978,
0.88500000000000001,-0.046446323394775391,
0.88749999999999996,-0.04473944753408432,
0.89000000000000001,-0.044186513870954514,
0.89249999999999996,-0.043849945068359375,
0.89500000000000002,-0.043681662529706955,
0.89749999999999996,-0.043946109712123871,
0.90000000000000002,-0.044306717813014984,
0.90249999999999997,-0.04478752613067627,
0.90500000000000003,-0.045364499092102051,
0.90749999999999997,-0.046518445014953613,
0.91000000000000003,-0.047023296356201172,
0.91249999999999998,-0.047383904457092285,
0.91500000000000004,-0.047624312341213226,
0.91749999999999998,-0.047672390937805176,
0.92000000000000004,-0.047504108399152756,
0.92249999999999999,-0.04723966121673584,
0.92500000000000004,-0.046903096139431,
0.92749999999999999,-0.046181879937648773,
0.93000000000000005,-0.045797228813171387,
0.9325,-0.045412581413984299,
0.93500000000000005,-0.044979851692914963,
0.9375,-0.043873988091945648,
0.93999999999999995,-0.043176811188459396,
0.9425,-0.042311351746320724,
0.94499999999999995,-0.041253566741943359,
0.94750000000000001,-0.038609109818935394,
0.94999999999999996,-0.037022434175014496,
0.95250000000000001,-0.035315554589033127,
0.95499999999999996,-0.033536553382873535,
0.95750000000000002,-0.030170878395438194,
0.95999999999999996,-0.028800567612051964,
0.96250000000000002,-0.027790864929556847,
0.96499999999999997,-0.027189850807189941,
0.96750000000000003,-0.027406215667724609,
0.96999999999999997,-0.028175514191389084,
0.97250000000000003,-0.029257338494062424,
0.97499999999999998,-0.030507445335388184,
0.97750000000000004,-0.032791297882795334,
0.97999999999999998,-0.033440392464399338,
0.98250000000000004,-0.033536553382873535,
0.98499999999999999,-0.032983623445034027,
0.98750000000000004,-0.029617946594953537,
0.98999999999999999,-0.026829242706298828,
0.99250000000000005,-0.023367404937744141,
0.995,-0.01937667652964592,
0.99750000000000005,-0.01031339168548584,
1,-0.0056495270691812038,81.447959899902344
1.0024999999999999,-0.0011299054604023695,
1.0049999999999999,0.0029569864273071289,
1.0075000000000001,0.0091113653033971786,
1.01,0.010794202797114849,
1.0125,0.011347135528922081,
1.0149999999999999,0.010722081176936626,
1.0175000000000001,0.0059620542451739311,
1.02,0.0020194053649902344,
1.0225,-0.0027406215667724609,
1.0249999999999999,-0.0080535812303423882,
1.0275000000000001,-0.019448798149824142,
1.03,-0.025002162903547287,
1.0325,-0.030170878395438194,
1.0349999999999999,-0.034786663949489594,
1.0375000000000001,-0.041878622025251389,
1.04,-0.044306717813014984,
1.0425,-0.046013593673706055,
1.0449999999999999,-0.04707137867808342,
1.0475000000000001,-0.047624312341213226,
1.05,-0.047287743538618088,
1.0525,-0.046614609658718109,
1.0549999999999999,-0.045580863952636719,
1.0575000000000001,-0.042359434068202972,
1.0600000000000001,-0.04017174243927002,
1.0625,-0.037743650376796722,
1.0649999999999999,-0.035267472267150879,
1.0674999999999999,-0.031925838440656662,
1.0700000000000001,-0.032238364219665527,
1.0725,-0.034858785569667816,
1.075,-0.040484271943569183,
1.0774999999999999,-0.06286601722240448,
1.0800000000000001,-0.079982876777648926,
1.0825,-0.10053753852844238,
1.085,-0.12361645698547363,
1.0874999999999999,-0.17080804705619812,
1.0900000000000001,-0.1905934065580368,
1.0925,-0.20436863601207733,
1.095,-0.20934502780437469,
1.0974999999999999,-0.1823955774307251,
1.1000000000000001,-0.14616648852825165,
1.1025,-0.093084976077079773,
1.105,-0.023006796836853027,
1.1074999999999999,0.16208133101463318,
1.1100000000000001,0.27081668376922607,
1.1125,0.38392743468284607,
1.115,0.4953312873840332,
1.1174999999999999,0.68570834398269653,
1.1200000000000001,0.7514832615852356,
1.1225000000000001,0.7902606725692749,
1.125,0.79853057861328125,
1.1274999999999999,0.72051906585693359,
1.1299999999999999,0.6387331485748291,
1.1325000000000001,0.53511840105056763,
1.135,0.41688701510429382,
1.1375,0.16898095607757568,
1.1399999999999999,0.055028796195983887,
1.1425000000000001,-0.043585501611232758,
1.145,-0.12258271872997284,
1.1475,-0.21525900065898895,
1.1499999999999999,-0.23071706295013428,
1.1525000000000001,-0.22946695983409882,
1.155,-0.21561960875988007,
1.1575,-0.16773085296154022,
1.1599999999999999,-0.1414545476436615,
1.1625000000000001,-0.11751016229391098,
1.165,-0.097532473504543304,
1.1675,-0.07168889045715332,
1.1699999999999999,-0.065101787447929382,
1.1725000000000001,-0.061543785035610199,
1.175,-0.060029231011867523,
1.1775,-0.059259932488203049,
1.1799999999999999,-0.058731041848659515,
1.1825000000000001,-0.057625174522399902,
1.1850000000000001,-0.055822134017944336,
1.1875,-0.050485134124755859,
1.1899999999999999,-0.047215621918439865,
1.1924999999999999,-0.043753784149885178,
1.1950000000000001,-0.040243864059448242,
1.1975,-0.03351251408457756,
1.2,-0.030507445335388184,
1.2024999999999999,-0.027790864929556847,
1.2050000000000001,-0.025434892624616623,
1.2075,-0.021852850914001465,
1.21,-0.020530622452497482,
1.2124999999999999,-0.019424756988883018,
1.2150000000000001,-0.018366973847150803,
1.2175,-0.015938878059387207,
1.22,-0.014352202415466309,
1.2224999999999999,-0.012404918670654297,
1.2250000000000001,-0.010145108215510845,
1.2275,-0.0050485134124755859,
1.23,-0.0025002162437886,
1.2324999999999999,-0.00016828379011712968,
1.2350000000000001,0.0018270810833200812,
1.2375,0.0046879053115844727,
1.24,0.0056254863739013672,
1.2424999999999999,0.0064669055864214897,
1.2450000000000001,0.0073804459534585476,
1.2475000000000001,0.010337432846426964,
1.25,0.012693405151367188,
1.2524999999999999,0.015746554359793663,
1.2549999999999999,0.019400715827941895,
1.2575000000000001,0.027887027710676193,
1.26,0.032214324921369553,
1.2625,0.036301217973232269,
1.2649999999999999,0.039931338280439377,
1.2675000000000001,0.045340459793806076,
1.27,0.047215621918439865,
1.2725,0.048706136643886566,
1.2749999999999999,0.050100486725568771,
1.2775000000000001,0.053586363792419434,
1.28,0.056182742118835449,
1.2825,0.059596501290798187,
1.2849999999999999,0.063899755477905273,
1.2875000000000001,0.075006484985351562,
1.29,0.081569552421569824,
1.2925,0.088541314005851746,
1.2949999999999999,0.095705389976501465,
1.2975000000000001,0.10986527055501938,
1.3,0.11650045961141586,
1.3025,0.12270291894674301,
1.3049999999999999,0.12837648391723633,
1.3075000000000001,0.1382811963558197,
1.3100000000000001,0.14258444309234619,
1.3125,0.14657518267631531,
1.3149999999999999,0.15034954249858856,
1.3174999999999999,0.1575857400894165,
1.3200000000000001,0.16114374995231628,
1.3225,0.16465365886688232,
1.325,0.16804337501525879,
1.3274999999999999,0.17390927672386169,
1.3300000000000001,0.17597675323486328,
1.3325,0.17715474963188171,
1.335,0.17722687125205994,
1.3374999999999999,0.17326018214225769,
1.3400000000000001,0.16900500655174255,
1.3425,0.16321122646331787,
1.345,0.15595099329948425,
1.3474999999999999,0.13777634501457214,
1.3500000000000001,0.12736678123474121,
1.3525,0.11647641658782959,
1.355,0.1053696870803833,
1.3574999999999999,0.083468757569789886,
1.3600000000000001,0.072963044047355652,
1.3625,0.06286601722240448,
1.365,0.053153634071350098,
1.3674999999999999,0.034570299088954926,
1.3700000000000001,0.025507014244794846,
1.3725000000000001,0.016515851020812988,
1.375,0.0075246891938149929,
1.3774999999999999,-0.010217229835689068,
1.3799999999999999,-0.018751621246337891,
1.3825000000000001,-0.026901364326477051,
1.385,-0.034450095146894455,
1.3875,-0.04723966121673584,
1.3899999999999999,-0.052264135330915451,
1.3925000000000001,-0.056326985359191895,
1.395,-0.059452258050441742,
1.3975,-0.063298746943473816,
1.3999999999999999,-0.06428440660238266,
1.4025000000000001,-0.064861379563808441,
1.405,-0.065173909068107605,
1.4075,-0.065630674362182617,
1.4099999999999999,-0.065943203866481781,
1.4125000000000001,-0.066375933587551117,
1.415,-0.066976949572563171,
1.4175,-0.06856362521648407,
1.4199999999999999,-0.069549284875392914,
1.4225000000000001,-0.070583030581474304,
1.425,-0.071664854884147644,
1.4275,-0.073900625109672546,
1.4299999999999999,-0.075030528008937836,
1.4325000000000001,-0.076112352311611176,
1.4350000000000001,-0.07709801197052002,
1.4375,-0.078684687614440918,
1.4399999999999999,-0.0791655033826828,
1.4424999999999999,-0.079381868243217468,
1.4450000000000001,-0.079285703599452972,
1.4475,-0.078227922320365906,
1.45,-0.077314376831054688,
1.4524999999999999,-0.076280638575553894,
1.4550000000000001,-0.075198814272880554,
1.4575,-0.073251530528068542,
1.46,-0.072530314326286316,
1.4624999999999999,-0.072049498558044434,
1.4650000000000001,-0.07168889045715332,
1.4675,-0.071785055100917816,
1.47,-0.071953341364860535,
1.4724999999999999,-0.072193741798400879,
1.4750000000000001,-0.072458192706108093,
1.4775,-0.073107287287712097,
1.48,-0.073491930961608887,
1.4824999999999999,-0.073948703706264496,
1.4850000000000001,-0.074910327792167664,
1.4875,-0.075294971466064453,
1.49,-0.075415179133415222,
1.4924999999999999,-0.075150728225708008,
1.4950000000000001,-0.072987079620361328,
1.4975000000000001,-0.07101576030254364,
1.5,-0.068491503596305847,
1.5024999999999999,-0.065606638789176941,
1.5049999999999999,-0.059644579887390137,
1.5075000000000001,-0.057192444801330566,
1.51,-0.055413447320461273,
1.5125,-0.054499905556440353,
1.5149999999999999,-0.055365364998579025,
1.5175000000000001,-0.056879919022321701,
1.52,-0.058779120445251465,
1.5225,-0.060726404190063477,
1.5249999999999999,-0.063515111804008484,
1.5275000000000001,-0.06394784152507782,
1.53,-0.063635312020778656,
1.5325,-0.062577530741691589,
1.5349999999999999,-0.059019528329372406,
1.5375000000000001,-0.056928001344203949,
1.54,-0.054908595979213715,
1.5425,-0.053081512451171875,
1.5449999999999999,-0.050220690667629242,
1.5475000000000001,-0.049090784043073654,
1.55,-0.048081081360578537,
1.5525,-0.047095417976379395,
1.5549999999999999,-0.04507601261138916,
1.5575000000000001,-0.044090352952480316,
1.5600000000000001,-0.043200850486755371,
1.5625,-0.042503677308559418,
1.5649999999999999,-0.041878622025251389,
1.5674999999999999,-0.041926704347133636,
1.5700000000000001,-0.042119026184082031,
1.5725,-0.04228731244802475,
1.575,-0.041998825967311859,
1.5774999999999999,-0.041325688362121582,
1.5800000000000001,-0.04029194638133049,
1.5825,-0.038945674896240234,
1.585,-0.035988688468933105,
1.5874999999999999,-0.03476262092590332,
1.5900000000000001,-0.033897161483764648,
1.5925,-0.03351251408457756,
1.595,-0.034113526344299316,
1.5974999999999999,-0.034954946488142014,
1.6000000000000001,-0.035916566848754883,
1.6025,-0.036830108612775803,
1.605,-0.03812829777598381,
1.6074999999999999,-0.038320623338222504,
1.6100000000000001,-0.038248501718044281,
1.6125,-0.037935972213745117,
1.615,-0.03692626953125,
1.6174999999999999,-0.036325257271528244,
1.6200000000000001,-0.035772323608398438,
1.6225000000000001,-0.035243432968854904,
1.625,-0.034377973526716232,
1.6274999999999999,-0.034041404724121094,
1.6299999999999999,-0.033801000565290451,
1.6325000000000001,-0.033704839646816254,
1.635,-0.033704839646816254,
1.6375,-0.034065447747707367,
1.6399999999999999,-0.034257769584655762,
1.6425000000000001,-0.03430585190653801,
1.645,-0.033296149224042892,
1.6475,-0.031997960060834885,
1.6499999999999999,-0.030050676316022873,
1.6525000000000001,-0.027478337287902832,
1.655,-0.021011432632803917,
1.6575,-0.017597675323486328,
1.6599999999999999,-0.014472405426204205,
1.6625000000000001,-0.011900067329406738,
1.665,-0.0093036890029907227,
1.6675,-0.0094960136339068413,
1.6699999999999999,-0.010649959556758404,
1.6725000000000001,-0.012597243301570415,
1.675,-0.017982324585318565,
1.6775,-0.020867189392447472,
1.6799999999999999,-0.02353568933904171,
1.6825000000000001,-0.025795500725507736,
1.6850000000000001,-0.028464000672101974,
1.6875,-0.02860824391245842,
1.6899999999999999,-0.027814906090497971,
1.6924999999999999,-0.02598782442510128,
1.6950000000000001,-0.018871825188398361,
1.6975,-0.013486742973327637,
1.7,-0.0068996353074908257,
1.7024999999999999,0.00069717568112537265,
1.7050000000000001,0.017669796943664551,
1.7075,0.026108026504516602,
1.71,0.033728878945112228,
1.7124999999999999,0.039955377578735352,
1.7150000000000001,0.046061675995588303,
1.7175,0.045268338173627853,
1.72,0.041830539703369141,
1.7224999999999999,0.035940609872341156,
1.7250000000000001,0.018631419166922569,
1.7275,0.0084863109514117241,
1.73,-0.0017790000420063734,
1.7324999999999999,-0.011467337608337402,
1.7350000000000001,-0.027358135208487511,
1.7375,-0.033079784363508224,
1.74,-0.037262838333845139,
1.7424999999999999,-0.04012366384267807,
1.7450000000000001,-0.043080650269985199,
1.7475000000000001,-0.043801866471767426,
1.75,-0.044378839433193207,
1.7524999999999999,-0.044979851692914963,
1.7549999999999999,-0.0461578369140625,
1.7575000000000001,-0.046470366418361664,
1.76,-0.046254001557826996,
1.7625,-0.045292377471923828,
1.7649999999999999,-0.040508311241865158,
1.7675000000000001,-0.036782026290893555,
1.77,-0.032550893723964691,
1.7725,-0.028415918350219727,
1.7749999999999999,-0.023655891418457031,
1.7775000000000001,-0.02490600012242794,
1.78,-0.029762189835309982,
1.7825,-0.038897596299648285,
1.7849999999999999,-0.070655152201652527,
1.7875000000000001,-0.092459917068481445,
1.79,-0.11669278144836426,
1.7925,-0.14162282645702362,
1.7949999999999999,-0.18400630354881287,
1.7975000000000001,-0.19607464969158173,
1.8,-0.19828638434410095,
1.8025,-0.18802106380462646,
1.8049999999999999,-0.12188553810119629,
1.8075000000000001,-0.063755512237548828,
1.8100000000000001,0.010962486267089844,
1.8125,0.1007058247923851,
1.8149999999999999,0.31259915232658386,
1.8174999999999999,0.42532524466514587,
1.8200000000000001,0.53463757038116455,
1.8225,0.63378077745437622,
1.825,0.77557188272476196,
1.8274999999999999,0.80725729465484619,
1.8300000000000001,0.80812275409698486,
1.8325,0.77725470066070557,
1.835,0.62868416309356689,
1.8374999999999999,0.52074217796325684,
1.8400000000000001,0.39979419112205505,
1.8425,0.27406215667724609,
1.845,0.040243864059448242,
1.8474999999999999,-0.054572027176618576,
1.8500000000000001,-0.12878517806529999,
1.8525,-0.18078486621379852,
1.855,-0.22172591090202332,
1.8574999999999999,-0.21672546863555908,
1.8600000000000001,-0.20042598247528076,
1.8625,-0.17739515006542206,
1.865,-0.15181601047515869,
1.8674999999999999,-0.1054658517241478,
1.8700000000000001,-0.088252827525138855,
1.8725000000000001,-0.075703665614128113,
1.875,-0.062240958213806152,
1.8774999999999999,-0.059259932488203049,
1.8799999999999999,-0.05738477036356926,
1.8825000000000001,-0.055774055421352386,
1.885,-0.05168716236948967,
1.8875,-0.049018662422895432,
1.8899999999999999,-0.046109758317470551,
1.8925000000000001,-0.043152771890163422,
1.895,-0.0376715287566185,
1.8975,-0.035171311348676682,
1.8999999999999999,-0.032671093940734863,
1.9025000000000001,-0.030050676316022873,
1.905,-0.023920338600873947,
1.9075,-0.020386379212141037,
1.9099999999999999,-0.016660094261169434,
1.9125000000000001,-0.012933811172842979,
1.915,-0.0065390272065997124,
1.9175,-0.0042792162857949734,
1.9199999999999999,-0.0028127431869506836,
1.9225000000000001,-0.0021155676804482937,
1.925,-0.002476175781339407,
1.9275,-0.0030771892052143812,
1.9299999999999999,-0.0035820405464619398,
1.9325000000000001,-0.0037262837868183851,
1.9350000000000001,-0.002067486522719264,
1.9375,-0.00012020270514767617,
1.9399999999999999,0.0025723378639668226,
1.9424999999999999,0.0058658919297158718,
1.9450000000000001,0.01353482436388731,
1.9475,0.017525553703308105,
1.95,0.021323960274457932,
1.9524999999999999,0.024833878502249718,
1.9550000000000001,0.030627649277448654,
1.9575,0.032863419502973557,
1.96,0.034738581627607346,
1.9624999999999999,0.036373339593410492,
1.9650000000000001,0.039402447640895844,
1.9675,0.041085284203290939,
1.97,0.043080650269985199,
1.9724999999999999,0.045508742332458496,
1.9750000000000001,0.05185544490814209,
1.9775,0.055798094719648361,
1.98,0.060245595872402191,
1.9824999999999999,0.06502966582775116,
1.9850000000000001,0.075270935893058777,
1.9875,0.080487728118896484,
1.99,0.085608363151550293,
1.9924999999999999,0.090584754943847656,
1.9950000000000001,0.1000567302107811,
1.9975000000000001,0.1046244353055954,
2,0.10916809737682343,82.90155029296875
2.0024999999999999,0.11380791664123535,
2.0049999999999999,0.12359242141246796,
2.0074999999999998,0.12890538573265076,
2.0099999999999998,0.13453087210655212,
2.0125000000000002,0.14044484496116638,
2.0150000000000001,0.1529218852519989,
2.0175000000000001,0.1592685878276825,
2.02,0.165519118309021,
2.0225,0.1714811772108078,
2.0249999999999999,0.18186669051647186,
2.0274999999999999,0.18595358729362488,
2.0299999999999998,0.1891028881072998,
2.0325000000000002,0.19124250113964081,
2.0350000000000001,0.19239644706249237,
2.0375000000000001,0.19145886600017548,
2.04,0.18965582549571991,
2.0425,0.18705944716930389,
2.0449999999999999,0.17994344234466553,
2.0474999999999999,0.17554402351379395,
2.0499999999999998,0.17059168219566345,
2.0525000000000002,0.16508638858795166,
2.0550000000000002,0.15203237533569336,
2.0575000000000001,0.14433941245079041,
2.0600000000000001,0.13578097522258759,
2.0625,0.12638112902641296,
2.0649999999999999,0.10520140826702118,
2.0674999999999999,0.09368598461151123,
2.0699999999999998,0.081785917282104492,
2.0724999999999998,0.069717571139335632,
2.0750000000000002,0.045941472053527832,
2.0775000000000001,0.034642420709133148,
2.0800000000000001,0.023896297439932823,
2.0825,0.01384735107421875,
2.085,-0.0040868921205401421,
2.0874999999999999,-0.011924108490347862,
2.0899999999999999,-0.019064148887991905,
2.0924999999999998,-0.025482973083853722,
2.0950000000000002,-0.036469500511884689,
2.0975000000000001,-0.041085284203290939,
2.1000000000000001,-0.045124094933271408,
2.1025,-0.048658054322004318,
2.105,-0.054259501397609711,
2.1074999999999999,-0.05642315000295639,
2.1099999999999999,-0.058226190507411957,
2.1124999999999998,-0.059740744531154633,
2.1150000000000002,-0.062240958213806152,
2.1175000000000002,-0.063346825540065765,
2.1200000000000001,-0.064476728439331055,
2.1225000000000001,-0.065678760409355164,
2.125,-0.068275138735771179,
2.1274999999999999,-0.069621406495571136,
2.1299999999999999,-0.070895552635192871,
2.1324999999999998,-0.071953341364860535,
2.1349999999999998,-0.073107287287712097,
2.1375000000000002,-0.073035165667533875,
2.1400000000000001,-0.072458192706108093,
2.1425000000000001,-0.071448490023612976,
2.145,-0.06856362521648407,
2.1475,-0.067000985145568848,
2.1499999999999999,-0.065606638789176941,
2.1524999999999999,-0.064572893083095551,
2.1549999999999998,-0.063923798501491547,
2.1575000000000002,-0.064356528222560883,
2.1600000000000001,-0.065221987664699554,
2.1625000000000001,-0.066375933587551117,
2.165,-0.068924233317375183,
2.1675,-0.070006057620048523,
2.1699999999999999,-0.070823431015014648,
2.1724999999999999,-0.071304246783256531,
2.1749999999999998,-0.071448490023612976,
2.1775000000000002,-0.071256160736083984,
2.1800000000000002,-0.070991717278957367,
2.1825000000000001,-0.070775352418422699,
2.1850000000000001,-0.070558987557888031,
2.1875,-0.070510908961296082,
2.1899999999999999,-0.070462822914123535,
2.1924999999999999,-0.070294544100761414,
2.1949999999999998,-0.069356963038444519,
2.1974999999999998,-0.068515539169311523,
2.2000000000000002,-0.067385636270046234,
2.2025000000000001,-0.066039368510246277,
2.2050000000000001,-0.063082382082939148,
2.2075,-0.061639945954084396,
2.21,-0.060365796089172363,
2.2124999999999999,-0.059283971786499023,
2.2149999999999999,-0.057937704026699066,
2.2174999999999998,-0.05767325684428215,
2.2200000000000002,-0.05767325684428215,
2.2225000000000001,-0.057913661003112793,
2.2250000000000001,-0.058827202767133713,
2.2275,-0.059428215026855469,
2.23,-0.060029231011867523,
2.2324999999999999,-0.060534082353115082,
2.2349999999999999,-0.061135094612836838,
2.2374999999999998,-0.061135094612836838,
2.2400000000000002,-0.060894690454006195,
2.2425000000000002,-0.060413878411054611,
2.2450000000000001,-0.05892336368560791,
2.2475000000000001,-0.058009825646877289,
2.25,-0.057072244584560394,
2.2524999999999999,-0.0561346635222435,
2.2549999999999999,-0.054451823234558105,
2.2574999999999998,-0.053730607032775879,
2.2599999999999998,-0.0530574731528759,
2.2625000000000002,-0.052408378571271896,
2.2650000000000001,-0.051158271729946136,
2.2675000000000001,-0.050509177148342133,
2.27,-0.049812000244855881,
2.2725,-0.049066744744777679,
2.2749999999999999,-0.047407947480678558,
2.2774999999999999,-0.046470366418361664,
2.2799999999999998,-0.045460663735866547,
2.2825000000000002,-0.044402878731489182,
2.2850000000000001,-0.042094986885786057,
2.2875000000000001,-0.040892958641052246,
2.29,-0.039739012718200684,
2.2925,-0.038609109818935394,
2.2949999999999999,-0.036733947694301605,
2.2974999999999999,-0.036060810089111328,
2.2999999999999998,-0.035628080368041992,
2.3025000000000002,-0.035459797829389572,
2.3050000000000002,-0.035988688468933105,
2.3075000000000001,-0.036661826074123383,
2.3100000000000001,-0.037599407136440277,
2.3125,-0.038777392357587814,
2.3149999999999999,-0.041566096246242523,
2.3174999999999999,-0.043008528649806976,
2.3199999999999998,-0.044402878731489182,
2.3224999999999998,-0.045604906976222992,
2.3250000000000002,-0.047023296356201172,
2.3275000000000001,-0.04707137867808342,
2.3300000000000001,-0.046590566635131836,
2.3325,-0.045604906976222992,
2.335,-0.042263269424438477,
2.3374999999999999,-0.040147703140974045,
2.3399999999999999,-0.03796001523733139,
2.3424999999999998,-0.035868488252162933,
2.3450000000000002,-0.032815337181091309,
2.3475000000000001,-0.03214220330119133,
2.3500000000000001,-0.032070081681013107,
2.3525,-0.032598972320556641,
2.355,-0.034834742546081543,
2.3574999999999999,-0.036060810089111328,
2.3599999999999999,-0.037022434175014496,
2.3624999999999998,-0.037479203194379807,
2.3650000000000002,-0.036253135651350021,
2.3675000000000002,-0.034498177468776703,
2.3700000000000001,-0.032094120979309082,
2.3725000000000001,-0.029305418953299522,
2.375,-0.023511648178100586,
2.3774999999999999,-0.021107595413923264,
2.3799999999999999,-0.019304554909467697,
2.3824999999999998,-0.018222730606794357,
2.3849999999999998,-0.018366973847150803,
2.3875000000000002,-0.019352635368704796,
2.3900000000000001,-0.020722946152091026,
2.3925000000000001,-0.022237500175833702,
2.395,-0.025002162903547287,
2.3975,-0.025939743965864182,
2.3999999999999999,-0.02644459530711174,
2.4024999999999999,-0.026540756225585938,
2.4049999999999998,-0.025458931922912598,
2.4075000000000002,-0.024353068321943283,
2.4100000000000001,-0.022886594757437706,
2.4125000000000001,-0.021059513092041016,
2.415,-0.016083121299743652,
2.4175,-0.012837648391723633,
2.4199999999999999,-0.009015202522277832,
2.4224999999999999,-0.0046638650819659233,
2.4249999999999998,0.0052408380433917046,
2.4275000000000002,0.010385513305664062,
2.4300000000000002,0.015265743248164654,
2.4325000000000001,0.01954495906829834,
2.4350000000000001,0.02490600012242794,
2.4375,0.025434892624616623,
2.4399999999999999,0.024353068321943283,
2.4424999999999999,0.021636486053466797,
2.4449999999999998,0.012092391960322857,
2.4474999999999998,0.0059380135498940945,
2.4500000000000002,-0.00057697296142578125,
2.4525000000000001,-0.0069477162323892117,
2.4550000000000001,-0.017862122505903244,
2.4575,-0.021900933235883713,
2.46,-0.024930041283369064,
2.4624999999999999,-0.02706964872777462,
2.4649999999999999,-0.029810270294547081,
2.4674999999999998,-0.031108459457755089,
2.4700000000000002,-0.032743215560913086,
2.4725000000000001,-0.034930907189846039,
2.4750000000000001,-0.040965080261230469,
2.4775,-0.044402878731489182,
2.48,-0.047600269317626953,
2.4824999999999999,-0.050124526023864746,
2.4849999999999999,-0.05168716236948967,
2.4874999999999998,-0.050413012504577637,
2.4900000000000002,-0.047960877418518066,
2.4925000000000002,-0.044859647750854492,
2.4950000000000001,-0.040051542222499847,
2.4975000000000001,-0.040436189621686935,
2.5,-0.044042270630598068,
2.5024999999999999,-0.05168716236948967,
2.5049999999999999,-0.080535814166069031,
2.5074999999999998,-0.10111451148986816,
2.5099999999999998,-0.12445788085460663,
2.5125000000000002,-0.14876286685466766,
2.5150000000000001,-0.19076168537139893,
2.5175000000000001,-0.20285408198833466,
2.52,-0.20508985221385956,
2.5225,-0.1947043389081955,
2.5249999999999999,-0.12724658846855164,
2.5274999999999999,-0.067746244370937347,
2.5299999999999998,0.0088469190523028374,
2.5325000000000002,0.10085006803274155,
2.5350000000000001,0.31762361526489258,
2.5375000000000001,0.43241721391677856,
2.54,0.54309988021850586,
2.5425,0.64274787902832031,
2.5449999999999999,0.7824474573135376,
2.5474999999999999,0.81170481443405151,
2.5499999999999998,0.80951714515686035,
2.5525000000000002,0.77535551786422729,
2.5550000000000002,0.62111139297485352,
2.5575000000000001,0.5115586519241333,
2.5600000000000001,0.39003372192382812,
2.5625,0.26480656862258911,
2.5649999999999999,0.034522216767072678,
2.5674999999999999,-0.057961743324995041,
2.5699999999999998,-0.12996315956115723,
2.5724999999999998,-0.18020789325237274,
2.5750000000000002,-0.22004306316375732,
2.5775000000000001,-0.21571576595306396,
2.5800000000000001,-0.20071446895599365,
2.5825,-0.17941455543041229,
2.585,-0.13248741626739502,
2.5874999999999999,-0.11200487613677979,
2.5899999999999999,-0.095344781875610352,
2.5924999999999998,-0.082723498344421387,
2.5950000000000002,-0.067505836486816406,
2.5975000000000001,-0.063226625323295593,
2.6000000000000001,-0.06000518798828125,
2.6025,-0.057240527123212814,
2.605,-0.051663123071193695,
2.6074999999999999,-0.048754215240478516,
2.6099999999999999,-0.04582127183675766,
2.6124999999999998,-0.043008528649806976,
2.6150000000000002,-0.037791728973388672,
2.6175000000000002,-0.035267472267150879,
2.6200000000000001,-0.032647054642438889,
2.6225000000000001,-0.029810270294547081,
2.625,-0.023319324478507042,
2.6274999999999999,-0.019785365089774132,
2.6299999999999999,-0.016275446861982346,
2.6324999999999998,-0.013005932793021202,
2.6349999999999998,-0.0078612565994262695,
2.6375000000000002,-0.0062505407258868217,
2.6400000000000001,-0.0052648782730102539,
2.6425000000000001,-0.004832148551940918,
2.645,-0.0048561892472207546,
2.6475,-0.0049523515626788139,
2.6499999999999999,-0.0048802299425005913,
2.6524999999999999,-0.004567702766507864,
2.6549999999999998,-0.0029569864273071289,
2.6575000000000002,-0.0017068784218281507,
2.6600000000000001,-0.00021636486053466797,
2.6625000000000001,0.0014905135612934828,
2.665,0.0054091215133666992,
2.6675,0.0076448917388916016,
2.6699999999999999,0.010048946365714073,
2.6724999999999999,0.012621283531188965,
2.6749999999999998,0.018198689445853233,
2.6775000000000002,0.021155675873160362,
2.6800000000000002,0.024208825081586838,
2.6825000000000001,0.027334094047546387,
2.6850000000000001,0.033969283103942871,
2.6875,0.037575364112854004,
2.6899999999999999,0.041493974626064301,
2.6924999999999999,0.045749150216579437,
2.6949999999999998,0.055269204080104828,
2.6974999999999998,0.060365796089172363,
2.7000000000000002,0.065534517168998718,
2.7025000000000001,0.07060706615447998,
2.7050000000000001,0.079910755157470703,
2.7075,0.083973608911037445,
2.71,0.087675854563713074,
2.7124999999999999,0.091113649308681488,
2.7149999999999999,0.09796520322561264,
2.7174999999999998,0.10173957049846649,
2.7200000000000002,0.10599474608898163,
2.7225000000000001,0.11075477302074432,
2.7250000000000001,0.12186150252819061,
2.7275,0.12794375419616699,
2.73,0.13414621353149414,
2.7324999999999999,0.14030060172080994,
2.7349999999999999,0.15179197490215302,
2.7374999999999998,0.15700876712799072,
2.7400000000000002,0.16181688010692596,
2.7425000000000002,0.16628842055797577,
2.7450000000000001,0.17439007759094238,
2.7475000000000001,0.17809233069419861,
2.75,0.18150608241558075,
2.7524999999999999,0.18455922603607178,
2.7549999999999999,0.18888652324676514,
2.7574999999999998,0.18982410430908203,
2.7599999999999998,0.18972794711589813,
2.7625000000000002,0.18842975795269012,
2.7650000000000001,0.18201093375682831,
2.7675000000000001,0.17691433429718018,
2.77,0.1706397533416748,
2.7725,0.16335546970367432,
2.7749999999999999,0.14628669619560242,
2.7774999999999999,0.1367906779050827,
2.7799999999999998,0.12686192989349365,
2.7825000000000002,0.11654853820800781,
2.7850000000000001,0.095344781875610352,
2.7875000000000001,0.084622703492641449,
2.79,0.073972746729850769,
2.7925,0.063467025756835938,
2.7949999999999999,0.043417215347290039,
2.7974999999999999,0.034065447747707367,
2.7999999999999998,0.025266608223319054,
2.8025000000000002,0.017068784683942795,
2.8050000000000002,0.0024040541611611843,
2.8075000000000001,-0.0041590137407183647,
2.8100000000000001,-0.01028935145586729,
2.8125,-0.016083121299743652,
2.8149999999999999,-0.026949446648359299,
2.8174999999999999,-0.032118164002895355,
2.8199999999999998,-0.037142634391784668,
2.8224999999999998,-0.041974782943725586,
2.8250000000000002,-0.050989985466003418,
2.8275000000000001,-0.05505283921957016,
2.8300000000000001,-0.05875508114695549,
2.8325,-0.062024593353271484,
2.835,-0.067121192812919617,
2.8374999999999999,-0.06885211169719696,
2.8399999999999999,-0.070054136216640472,
2.8424999999999998,-0.070679187774658203,
2.8450000000000002,-0.070390701293945312,
2.8475000000000001,-0.069573327898979187,
2.8500000000000001,-0.068419381976127625,
2.8525,-0.067097149789333344,
2.855,-0.064476728439331055,
2.8574999999999999,-0.063491068780422211,
2.8599999999999999,-0.062890052795410156,
2.8624999999999998,-0.062769852578639984,
2.8650000000000002,-0.063899755477905273,
2.8675000000000002,-0.064981579780578613,
2.8700000000000001,-0.066207647323608398,
2.8725000000000001,-0.067385636270046234,
2.875,-0.068876147270202637,
2.8774999999999999,-0.06890019029378891,
2.8799999999999999,-0.068419381976127625,
2.8824999999999998,-0.067505836486816406,
2.8849999999999998,-0.064909458160400391,
2.8875000000000002,-0.063707433640956879,
2.8900000000000001,-0.062817931175231934,
2.8925000000000001,-0.062409244477748871,
2.895,-0.063322782516479492,
2.8975,-0.064500771462917328,
2.8999999999999999,-0.065967246890068054,
2.9024999999999999,-0.067529879510402679,
2.9049999999999998,-0.070126257836818695,
2.9075000000000002,-0.070919595658779144,
2.9100000000000001,-0.071280203759670258,
2.9125000000000001,-0.071304246783256531,
2.915,-0.070583030581474304,
2.9175,-0.070078179240226746,
2.9199999999999999,-0.069549284875392914,
2.9224999999999999,-0.069068476557731628,
2.9249999999999998,-0.068010687828063965,
2.9275000000000002,-0.067289471626281738,
2.9300000000000002,-0.066375933587551117,
2.9325000000000001,-0.065221987664699554,
2.9350000000000001,-0.062240958213806152,
2.9375,-0.060558121651411057,
2.9399999999999999,-0.058899324387311935,
2.9424999999999999,-0.055942337960004807,
2.9449999999999998,-0.054764352738857269,
2.9474999999999998,-0.053754650056362152,
2.9500000000000002,-0.052841108292341232,
2.9525000000000001,-0.051951609551906586,
2.9550000000000001,-0.049860082566738129,
2.9575,-0.048585932701826096,
2.96,-0.047215621918439865,
2.9624999999999999,-0.045773189514875412,
2.9649999999999999,-0.04336913675069809,
2.9674999999999998,-0.04262387752532959,
2.9700000000000002,-0.04228731244802475,
2.9725000000000001,-0.042431555688381195,
2.9750000000000001,-0.043849945068359375,
2.9775,-0.04490773007273674,
2.98,-0.046037636697292328,
2.9824999999999999,-0.048008959740400314,
2.9849999999999999,-0.048682093620300293,
2.9874999999999998,-0.049114823341369629,
2.9900000000000002,-0.04935523122549057,
2.9925000000000002,-0.049451392143964767,
2.9950000000000001,-0.049307148903608322,
2.9975000000000001,-0.049138866364955902,
3,-0.048898458480834961,91.081596374511719
3.0024999999999999,-0.048105120658874512,
3.0049999999999999,-0.047480069100856781,
3.0074999999999998,-0.046662688255310059,
3.0099999999999998,-0.045652985572814941,
3.0125000000000002,-0.043272972106933594,
3.0150000000000001,-0.042022865265607834,
3.0175000000000001,-0.040844880044460297,
3.02,-0.039763055741786957,
3.0225,-0.038152337074279785,
3.0249999999999999,-0.037623446434736252,
3.0274999999999999,-0.037262838333845139,
3.0299999999999998,-0.037022434175014496,
3.0325000000000002,-0.036806069314479828,
3.0350000000000001,-0.036782026290893555,
3.0375000000000001,-0.036782026290893555,
3.04,-0.036782026290893555,
3.0425,-0.036878190934658051,
3.0449999999999999,-0.036950312554836273,
3.0474999999999999,-0.036998391151428223,
3.0499999999999998,-0.037046473473310471,
3.0525000000000002,-0.036878190934658051,
3.0550000000000002,-0.036637783050537109,
3.0575000000000001,-0.036253135651350021,
3.0600000000000001,-0.035724245011806488,
3.0625,-0.035051107406616211,
3.0649999999999999,-0.03334423154592514,
3.0674999999999999,-0.032406650483608246,
3.0699999999999998,-0.031445026397705078,
3.0724999999999998,-0.029593905434012413,
3.0750000000000002,-0.028752487152814865,
3.0775000000000001,-0.028031270951032639,
3.0800000000000001,-0.027406215667724609,
3.0825,-0.026564797386527061,
3.085,-0.026396512985229492,
3.0874999999999999,-0.026372473686933517,
3.0899999999999999,-0.026540756225585938,
3.0924999999999998,-0.027237933129072189,
3.0950000000000002,-0.027622580528259277,
3.0975000000000001,-0.027862986549735069,
3.1000000000000001,-0.027814906090497971,
3.1025,-0.026059946045279503,
3.105,-0.024016499519348145,
3.1074999999999999,-0.020987391471862793,
3.1099999999999999,-0.016972621902823448,
3.1124999999999998,-0.0062745809555053711,
3.1150000000000002,-2.4040540665737353e-05,
3.1175000000000002,0.0063467025756835938,
3.1200000000000001,0.012428959831595421,
3.1225000000000001,0.021780729293823242,
3.125,0.024232864379882812,
3.1274999999999999,0.024761756882071495,
3.1299999999999999,0.023271244019269943,
3.1324999999999998,0.014424324035644531,
3.1349999999999998,0.0075968108139932156,
3.1375000000000002,-0.00024040541029535234,
3.1400000000000001,-0.0085824728012084961,
3.1425000000000001,-0.024497311562299728,
3.145,-0.031084418296813965,
3.1475,-0.036301217973232269,
3.1499999999999999,-0.039931338280439377,
3.1524999999999999,-0.042647920548915863,
3.1549999999999998,-0.042143069207668304,
3.1575000000000002,-0.040917001664638519,
3.1600000000000001,-0.03937840461730957,
3.1625000000000001,-0.037190716713666916,
3.165,-0.037118595093488693,
3.1675,-0.03796001523733139,
3.1699999999999999,-0.039570730179548264,
3.1724999999999999,-0.043970149010419846,
3.1749999999999998,-0.045917432755231857,
3.1775000000000002,-0.047095417976379395,
3.1800000000000002,-0.047215621918439865,
3.1825000000000001,-0.044066309928894043,
3.1850000000000001,-0.041469931602478027,
3.1875,-0.039065878838300705,
3.1899999999999999,-0.037815771996974945,
3.1924999999999999,-0.042984485626220703,
3.1949999999999998,-0.051206350326538086,
3.1974999999999998,-0.063851676881313324,
3.2000000000000002,-0.08092045783996582,
3.2025000000000001,-0.12515506148338318,
3.2050000000000001,-0.14926771819591522,
3.2075,-0.17181774973869324,
3.21,-0.19006451964378357,
3.2124999999999999,-0.20203670859336853,
3.2149999999999999,-0.19011259078979492,
3.2174999999999998,-0.1630910336971283,
3.2200000000000002,-0.11943340301513672,
3.2225000000000001,0.019064148887991905,
3.2250000000000001,0.11145194619894028,
3.2275,0.2154032438993454,
3.23,0.32632631063461304,
3.2324999999999999,0.54547989368438721,
3.2349999999999999,0.64031982421875,
3.2374999999999998,0.71643215417861938,
3.2400000000000002,0.76802313327789307,
3.2425000000000002,0.78225517272949219,
3.2450000000000001,0.74246805906295776,
3.2475000000000001,0.67366403341293335,
3.25,0.58043479919433594,
3.2524999999999999,0.3476262092590332,
3.2549999999999999,0.22391359508037567,
3.2574999999999998,0.10592262446880341,
3.2599999999999998,0.00045677027083002031,
3.2625000000000002,-0.15412390232086182,
3.2650000000000001,-0.1990797221660614,
3.2675000000000001,-0.22312025725841522,
3.27,-0.22896210849285126,
3.2725,-0.20191650092601776,
3.2749999999999999,-0.17792403697967529,
3.2774999999999999,-0.1523689478635788,
3.2799999999999998,-0.12837648391723633,
3.2825000000000002,-0.092387795448303223,
3.2850000000000001,-0.081593595445156097,
3.2875000000000001,-0.075006484985351562,
3.29,-0.071640811860561371,
3.2925,-0.070246458053588867,
3.2949999999999999,-0.068972311913967133,
3.2974999999999999,-0.067505836486816406,
3.2999999999999998,-0.064957544207572937,
3.3025000000000002,-0.056903958320617676,
3.3050000000000002,-0.05197564885020256,
3.3075000000000001,-0.046927135437726974,
3.3100000000000001,-0.042143069207668304,
3.3125,-0.034281812608242035,
3.3149999999999999,-0.031420987099409103,
3.3174999999999999,-0.029209256172180176,
3.3199999999999998,-0.02752641960978508,
3.3224999999999998,-0.024954080581665039,
3.3250000000000002,-0.023703973740339279,
3.3275000000000001,-0.022285580635070801,
3.3300000000000001,-0.020578702911734581,
3.3325,-0.016227364540100098,
3.335,-0.013655027374625206,
3.3374999999999999,-0.010938446037471294,
3.3399999999999999,-0.0081737842410802841,
3.3424999999999998,-0.0030531487427651882,
3.3450000000000002,-0.00091354054166004062,
3.3475000000000001,0.00086545944213867188,
3.3500000000000001,0.002259810920804739,
3.3525,0.0040388107299804688,
3.355,0.00461578369140625,
3.3574999999999999,0.0051927566528320312,
3.3599999999999999,0.0059139728546142578,
3.3624999999999998,0.0082699460908770561,
3.3650000000000002,0.010121067985892296,
3.3675000000000002,0.01247704029083252,
3.3700000000000001,0.015289783477783203,
3.3725000000000001,0.022045176476240158,
3.375,0.025795500725507736,
3.3774999999999999,0.02969006821513176,
3.3799999999999999,0.033656757324934006,
3.3824999999999998,0.041782461106777191,
3.3849999999999998,0.045917432755231857,
3.3875000000000002,0.050196647644042969,
3.3900000000000001,0.054596066474914551,
3.3925000000000001,0.063875719904899597,
3.395,0.068707868456840515,
3.3975,0.073636174201965332,
3.3999999999999999,0.078588530421257019,
3.4024999999999999,0.08844514936208725,
3.4049999999999998,0.093325376510620117,
3.4075000000000002,0.098157525062561035,
3.4100000000000001,0.10301371663808823,
3.4125000000000001,0.11299054324626923,
3.415,0.11823137849569321,
3.4175,0.12366454303264618,
3.4199999999999999,0.12931406497955322,
3.4224999999999999,0.14094969630241394,
3.4249999999999998,0.14679154753684998,
3.4275000000000002,0.1524651050567627,
3.4300000000000002,0.15787422657012939,
3.4325000000000001,0.16734620928764343,
3.4350000000000001,0.17124077677726746,
3.4375,0.17451028525829315,
3.4399999999999999,0.17710666358470917,
3.4424999999999999,0.18037617206573486,
3.4449999999999998,0.18107335269451141,
3.4474999999999998,0.18116950988769531,
3.4500000000000002,0.1807127445936203,
3.4525000000000001,0.17797212302684784,
3.4550000000000001,0.17561614513397217,
3.4575,0.17253896594047546,
3.46,0.16866843402385712,
3.4624999999999999,0.1584271639585495,
3.4649999999999999,0.15208046138286591,
3.4674999999999998,0.14498850703239441,
3.4700000000000002,0.13722340762615204,
3.4725000000000001,0.12029886245727539,
3.4750000000000001,0.11135578155517578,
3.4775,0.1021963357925415,
3.48,0.092916689813137054,
3.4824999999999999,0.073948703706264496,
3.4849999999999999,0.064212284982204437,
3.4874999999999998,0.054283540695905685,
3.4900000000000002,0.044138431549072266,
3.4925000000000002,0.023583769798278809,
3.4950000000000001,0.013462702743709087,
3.4975000000000001,0.0037262837868183851,
3.5,-0.0054331622086465359,
3.5024999999999999,-0.021227797493338585,
3.5049999999999999,-0.027646621689200401,
3.5074999999999998,-0.033127866685390472,
3.5099999999999998,-0.037743650376796722,
3.5125000000000002,-0.04507601261138916,
3.5150000000000001,-0.048201285302639008,
3.5175000000000001,-0.051158271729946136,
3.52,-0.05401909351348877,
3.5225,-0.059380136430263519,
3.5249999999999999,-0.061760149896144867,
3.5274999999999999,-0.063779555261135101,
3.5299999999999998,-0.065414309501647949,
3.5325000000000002,-0.067553922533988953,
3.5350000000000001,-0.068251095712184906,
3.5375000000000001,-0.068876147270202637,
3.54,-0.069621406495571136,
3.5425,-0.071785055100917816,
3.5449999999999999,-0.07317940890789032,
3.5474999999999999,-0.0745977982878685,
3.5499999999999998,-0.075847908854484558,
3.5525000000000002,-0.076761446893215179,
3.5550000000000002,-0.076064273715019226,
3.5575000000000001,-0.07454971969127655,
3.5600000000000001,-0.072265863418579102,
3.5625,-0.066592298448085785,
3.5649999999999999,-0.063899755477905273,
3.5674999999999999,-0.061808228492736816,
3.5699999999999998,-0.060630243271589279,
3.5724999999999998,-0.061519742012023926,
3.5750000000000002,-0.063467025756835938,
3.5775000000000001,-0.066087447106838226,
3.5800000000000001,-0.069020390510559082,
3.5825,-0.074357390403747559,
3.585,-0.076112352311611176,
3.5874999999999999,-0.07704993337392807,
3.5899999999999999,-0.077122054994106293,
3.5924999999999998,-0.075078606605529785,
3.5950000000000002,-0.073419809341430664,
3.5975000000000001,-0.071616768836975098,
3.6000000000000001,-0.0699339359998703,
3.6025,-0.067529879510402679,
3.605,-0.066952906548976898,
3.6074999999999999,-0.06678462028503418,
3.6099999999999999,-0.066976949572563171,
3.6124999999999998,-0.068034730851650238,
3.6150000000000002,-0.068731904029846191,
3.6175000000000002,-0.069380998611450195,
3.6200000000000001,-0.0699339359998703,
3.6225000000000001,-0.070462822914123535,
3.625,-0.07031857967376709,
3.6274999999999999,-0.069837771356105804,
3.6299999999999999,-0.069020390510559082,
3.6324999999999998,-0.066279768943786621,
3.6349999999999998,-0.064404606819152832,
3.6375000000000002,-0.062240958213806152,
3.6400000000000001,-0.059860944747924805,
3.6425000000000001,-0.054836474359035492,
3.645,-0.052408378571271896,
3.6475,-0.050172608345746994,
3.6499999999999999,-0.048225324600934982,
3.6524999999999999,-0.045436620712280273,
3.6549999999999998,-0.044667325913906097,
3.6575000000000002,-0.044282674789428711,
3.6600000000000001,-0.044234596192836761,
3.6625000000000001,-0.04490773007273674,
3.665,-0.045388542115688324,
3.6675,-0.045869350433349609,
3.6699999999999999,-0.046254001557826996,
3.6724999999999999,-0.046326123178005219,
3.6749999999999998,-0.045965515077114105,
3.6775000000000002,-0.045268338173627853,
3.6800000000000002,-0.044306717813014984,
3.6825000000000001,-0.041590135544538498,
3.6850000000000001,-0.039979420602321625,
3.6875,-0.038344662636518478,
3.6899999999999999,-0.036782026290893555,
3.6924999999999999,-0.03430585190653801,
3.6949999999999998,-0.033608675003051758,
3.6974999999999998,-0.033416353166103363,
3.7000000000000002,-0.033704839646816254,
3.7025000000000001,-0.035820405930280685,
3.7050000000000001,-0.037479203194379807,
3.7075,-0.039354365319013596,
3.71,-0.041277609765529633,
3.7124999999999999,-0.044426918029785156,
3.7149999999999999,-0.045316420495510101,
3.7174999999999998,-0.045580863952636719,
3.7200000000000002,-0.045196216553449631,
3.7225000000000001,-0.042671959847211838,
3.7250000000000001,-0.040796797722578049,
3.7275,-0.038825474679470062,
3.73,-0.03692626953125,
3.7324999999999999,-0.034185647964477539,
3.7349999999999999,-0.033560596406459808,
3.7374999999999998,-0.033464431762695312,
3.7400000000000002,-0.033897161483764648,
3.7425000000000002,-0.035796366631984711,
3.7450000000000001,-0.036974351853132248,
3.7475000000000001,-0.038104258477687836,
3.75,-0.039065878838300705,
3.7524999999999999,-0.04017174243927002,
3.7549999999999999,-0.040243864059448242,
3.7574999999999998,-0.040003459900617599,
3.7599999999999998,-0.039498608559370041,
3.7625000000000002,-0.037887893617153168,
3.7650000000000001,-0.036902230232954025,
3.7675000000000001,-0.035892527550458908,
3.77,-0.034930907189846039,
3.7725,-0.03334423154592514,
3.7749999999999999,-0.032743215560913086,
3.7774999999999999,-0.032238364219665527,
3.7799999999999998,-0.031757555902004242,
3.7825000000000002,-0.030531486496329308,
3.7850000000000001,-0.029569864273071289,
3.7875000000000001,-0.028319757431745529,
3.79,-0.026733081787824631,
3.7925,-0.022886594757437706,
3.7949999999999999,-0.02091526985168457,
3.7974999999999999,-0.019136270508170128,
3.7999999999999998,-0.017790000885725021,
3.8025000000000002,-0.016996663063764572,
3.8050000000000002,-0.017693838104605675,
3.8075000000000001,-0.019064148887991905,
3.8100000000000001,-0.020963352173566818,
3.8125,-0.025458931922912598,
3.8149999999999999,-0.027550458908081055,
3.8174999999999999,-0.029161175712943077,
3.8199999999999998,-0.030122797936201096,
3.8224999999999998,-0.029401581734418869,
3.8250000000000002,-0.027598541229963303,
3.8275000000000001,-0.024809837341308594,
3.8300000000000001,-0.021107595413923264,
3.8325,-0.011443297378718853,
3.835,-0.0058178110048174858,
3.8374999999999999,7.2121620178222656e-05,
3.8399999999999999,0.0059620542451739311,
3.8424999999999998,0.016539892181754112,
3.8450000000000002,0.020650824531912804,
3.8475000000000001,0.023631852120161057,
3.8500000000000001,0.02524256706237793,
3.8525,0.024088621139526367,
3.855,0.021347999572753906,
3.8574999999999999,0.01738131046295166,
3.8599999999999999,0.012404918670654297,
3.8624999999999998,0.00060101354029029608,
3.8650000000000002,-0.0056254863739013672,
3.8675000000000002,-0.011779865249991417,
3.8700000000000001,-0.017645757645368576,
3.8725000000000001,-0.028103392571210861,
3.875,-0.032574933022260666,
3.8774999999999999,-0.036565661430358887,
3.8799999999999999,-0.040051542222499847,
3.8824999999999998,-0.045556824654340744,
3.8849999999999998,-0.047504108399152756,
3.8875000000000002,-0.048898458480834961,
3.8900000000000001,-0.049643717706203461,
3.8925000000000001,-0.048994623124599457,
3.895,-0.04752814769744873,
3.8975,-0.045268338173627853,
3.8999999999999999,-0.042359434068202972,
3.9024999999999999,-0.035435758531093597,
3.9049999999999998,-0.032166242599487305,
3.9075000000000002,-0.029786229133605957,
3.9100000000000001,-0.028944810852408409,
3.9125000000000001,-0.034738581627607346,
3.915,-0.042671959847211838,
3.9175,-0.054523944854736328,
3.9199999999999999,-0.07031857967376709,
3.9224999999999999,-0.11181255429983139,
3.9249999999999998,-0.1353001594543457,
3.9275000000000002,-0.15837907791137695,
3.9300000000000002,-0.17878949642181396,
3.9325000000000001,-0.2013154923915863,
3.9350000000000001,-0.19804596900939941,
3.9375,-0.18177053332328796,
3.9399999999999999,-0.15049378573894501,
3.9424999999999999,-0.038777392357587814,
3.9449999999999998,0.041229527443647385,
3.9474999999999998,0.13503572344779968,
3.9500000000000002,0.239371657371521,
3.9525000000000001,0.46011191606521606,
3.9550000000000001,0.56452000141143799,
3.9575,0.65618658065795898,
3.96,0.72869282960891724,
3.9624999999999999,0.79547744989395142,
3.9649999999999999,0.78343313932418823,
3.9674999999999998,0.74040055274963379,
3.9700000000000002,0.66875976324081421,
3.9725000000000001,0.45977532863616943,
3.9750000000000001,0.33649545907974243,
3.9775,0.21136443316936493,
3.98,0.092267595231533051,
3.9824999999999999,-0.1021001785993576,
3.9849999999999999,-0.16893288493156433,
3.9874999999999998,-0.21340787410736084,
3.9900000000000002,-0.23643872141838074,
3.9925000000000002,-0.23016414046287537,
3.9950000000000001,-0.20917674899101257,
3.9975000000000001,-0.18232345581054688,
4,-0.15373925864696503,87.751373291015625
4.0025000000000004,-0.10332624614238739,
4.0049999999999999,-0.085007354617118835,
4.0075000000000003,-0.071977376937866211,
4.0099999999999998,-0.063707433640956879,
4.0125000000000002,-0.05755305290222168,
4.0149999999999997,-0.057288609445095062,
4.0175000000000001,-0.05755305290222168,
4.0199999999999996,-0.057601135224103928,
4.0225,-0.055629812180995941,
4.0250000000000004,-0.053490202873945236,
4.0274999999999999,-0.05077362060546875,
4.0300000000000002,-0.047672390937805176,
4.0324999999999998,-0.041133366525173187,
4.0350000000000001,-0.037935972213745117,
4.0374999999999996,-0.034882824867963791,
4.04,-0.03197392076253891,
4.0425000000000004,-0.026588838547468185,
4.0449999999999999,-0.024136703461408615,
4.0475000000000003,-0.02182881161570549,
4.0499999999999998,-0.019737284630537033,
4.0525000000000002,-0.016179284080862999,
4.0549999999999997,-0.014688770286738873,
4.0575000000000001,-0.013366540893912315,
4.0599999999999996,-0.012068351730704308,
4.0625,-0.009351770393550396,
4.0650000000000004,-0.0077410540543496609,
4.0674999999999999,-0.0059380135498940945,
4.0700000000000003,-0.0038705270271748304,
4.0724999999999998,0.00084141892148181796,
4.0750000000000002,0.0033656756859272718,
4.0774999999999997,0.0058899326249957085,
4.0800000000000001,0.0083661079406738281,
4.0824999999999996,0.012957851402461529,
4.085,0.015049378387629986,
4.0875000000000004,0.017044743523001671,
4.0899999999999999,0.019016068428754807,
4.0925000000000002,0.023127000778913498,
4.0949999999999998,0.025434892624616623,
4.0975000000000001,0.027983188629150391,
4.0999999999999996,0.030844014137983322,
4.1025,0.037455163896083832,
4.1050000000000004,0.04120548814535141,
4.1074999999999999,0.045148134231567383,
4.1100000000000003,0.049210987985134125,
4.1124999999999998,0.057408809661865234,
4.1150000000000002,0.061399541795253754,
4.1174999999999997,0.065221987664699554,
4.1200000000000001,0.06885211169719696,
4.1224999999999996,0.075799822807312012,
4.125,0.079285703599452972,
4.1275000000000004,0.082915827631950378,
4.1299999999999999,0.086882516741752625,
4.1325000000000003,0.096282362937927246,
4.1349999999999998,0.10193189233541489,
4.1375000000000002,0.10823051631450653,
4.1399999999999997,0.11515419185161591,
4.1425000000000001,0.13017952442169189,
4.1449999999999996,0.13787250220775604,
4.1475,0.14534911513328552,
4.1500000000000004,0.15234491229057312,
4.1524999999999999,0.16412477195262909,
4.1550000000000002,0.16871652007102966,
4.1574999999999998,0.17244279384613037,
4.1600000000000001,0.17542383074760437,
4.1624999999999996,0.17977516353130341,
4.165,0.18157820403575897,
4.1675000000000004,0.18335720896720886,
4.1699999999999999,0.18516024947166443,
4.1725000000000003,0.18876633048057556,
4.1749999999999998,0.19025683403015137,
4.1775000000000002,0.19124250113964081,
4.1799999999999997,0.19136270880699158,
4.1825000000000001,0.18785278499126434,
4.1849999999999996,0.18371781706809998,
4.1875,0.17785191535949707,
4.1900000000000004,0.17020702362060547,
4.1924999999999999,0.15027742087841034,
4.1950000000000003,0.13852159678936005,
4.1974999999999998,0.12602052092552185,
4.2000000000000002,0.11318286508321762,
4.2024999999999997,0.087747976183891296,
4.2050000000000001,0.07567962259054184,
4.2074999999999996,0.064212284982204437,
4.21,0.053394041955471039,
4.2125000000000004,0.033440392464399338,
4.2149999999999999,0.024112662300467491,
4.2175000000000002,0.015073418617248535,
4.2199999999999998,0.0062745809555053711,
4.2225000000000001,-0.010529756546020508,
4.2249999999999996,-0.018342932686209679,
4.2275,-0.025603175163269043,
4.2300000000000004,-0.03214220330119133,
4.2324999999999999,-0.042671959847211838,
4.2350000000000003,-0.046566527336835861,
4.2374999999999998,-0.049619674682617188,
4.2400000000000002,-0.051951609551906586,
4.2424999999999997,-0.055004756897687912,
4.2450000000000001,-0.056110620498657227,
4.2474999999999996,-0.057072244584560394,
4.25,-0.058033864945173264,
4.2525000000000004,-0.060077309608459473,
4.2549999999999999,-0.061159133911132812,
4.2575000000000003,-0.062240958213806152,
4.2599999999999998,-0.063274703919887543,
4.2625000000000002,-0.065149866044521332,
4.2649999999999997,-0.06599128246307373,
4.2675000000000001,-0.06673654168844223,
4.2699999999999996,-0.067433714866638184,
4.2725,-0.068587660789489746,
4.2750000000000004,-0.069044433534145355,
4.2774999999999999,-0.069380998611450195,
4.2800000000000002,-0.069621406495571136,
4.2824999999999998,-0.069717571139335632,
4.2850000000000001,-0.06964544951915741,
4.2874999999999996,-0.069501206278800964,
4.29,-0.069356963038444519,
4.2925000000000004,-0.069164633750915527,
4.2949999999999999,-0.069116555154323578,
4.2975000000000003,-0.069068476557731628,
4.2999999999999998,-0.068972311913967133,
4.3025000000000002,-0.068395338952541351,
4.3049999999999997,-0.067842409014701843,
4.3075000000000001,-0.067097149789333344,
4.3099999999999996,-0.066183611750602722,
4.3125,-0.064068041741847992,
4.3150000000000004,-0.063034296035766602,
4.3174999999999999,-0.06212075799703598,
4.3200000000000003,-0.061399541795253754,
4.3224999999999998,-0.060654282569885254,
4.3250000000000002,-0.060654282569885254,
4.3274999999999997,-0.060870647430419922,
4.3300000000000001,-0.06120721623301506,
4.3324999999999996,-0.062144797295331955,
4.335,-0.062601566314697266,
4.3375000000000004,-0.062938138842582703,
4.3399999999999999,-0.063154503703117371,
4.3425000000000002,-0.062986217439174652,
4.3449999999999998,-0.062577530741691589,
4.3475000000000001,-0.06200055405497551,
4.3499999999999996,-0.061255298554897308,
4.3525,-0.05966862291097641,
4.3550000000000004,-0.058971446007490158,
4.3574999999999999,-0.058442555367946625,
4.3600000000000003,-0.058130025863647461,
4.3624999999999998,-0.058130025863647461,
4.3650000000000002,-0.058322351425886154,
4.3674999999999997,-0.058538716286420822,
4.3700000000000001,-0.058610837906599045,
4.3724999999999996,-0.057889621704816818,
4.375,-0.056928001344203949,
4.3775000000000004,-0.055557690560817719,
4.3799999999999999,-0.053778689354658127,
4.3825000000000003,-0.04940330982208252,
4.3849999999999998,-0.047023296356201172,
4.3875000000000002,-0.044715404510498047,
4.3899999999999997,-0.042527716606855392,
4.3925000000000001,-0.038993757218122482,
4.3949999999999996,-0.037719607353210449,
4.3975,-0.036854147911071777,
4.4000000000000004,-0.036397378891706467,
4.4024999999999999,-0.036878190934658051,
4.4050000000000002,-0.037863850593566895,
4.4074999999999998,-0.039282243698835373,
4.4100000000000001,-0.041157405823469162,
4.4124999999999996,-0.045701067894697189,
4.415,-0.048057042062282562,
4.4175000000000004,-0.050220690667629242,
4.4199999999999999,-0.05197564885020256,
4.4225000000000003,-0.053634446114301682,
4.4249999999999998,-0.053369998931884766,
4.4275000000000002,-0.052408378571271896,
4.4299999999999997,-0.050821702927350998,
4.4325000000000001,-0.046542488038539886,
4.4349999999999996,-0.044258635491132736,
4.4375,-0.042070947587490082,
4.4400000000000004,-0.040147703140974045,
4.4424999999999999,-0.037238799035549164,
4.4450000000000003,-0.036229096353054047,
4.4474999999999998,-0.035435758531093597,
4.4500000000000002,-0.034834742546081543,
4.4524999999999997,-0.033945243805646896,
4.4550000000000001,-0.033608675003051758,
4.4574999999999996,-0.03339231014251709,
4.46,-0.033272109925746918,
4.4625000000000004,-0.033416353166103363,
4.4649999999999999,-0.033632718026638031,
4.4675000000000002,-0.033945243805646896,
4.4699999999999998,-0.03430585190653801,
4.4725000000000001,-0.035051107406616211,
4.4749999999999996,-0.035411715507507324,
4.4775,-0.035796366631984711,
4.4800000000000004,-0.036205053329467773,
4.4824999999999999,-0.037286877632141113,
4.4850000000000003,-0.037911932915449142,
4.4874999999999998,-0.038536988198757172,
4.4900000000000002,-0.039330326020717621,
4.4924999999999997,-0.039234161376953125,
4.4950000000000001,-0.038633149117231369,
4.4974999999999996,-0.037455163896083832,
4.5,-0.03567616268992424,
4.5025000000000004,-0.030675729736685753,
4.5049999999999999,-0.027766823768615723,
4.5075000000000003,-0.024930041283369064,
4.5099999999999998,-0.020434459671378136,
4.5125000000000002,-0.019136270508170128,
4.5149999999999997,-0.018631419166922569,
4.5175000000000001,-0.018823742866516113,
4.5199999999999996,-0.019617080688476562,
4.5225,-0.022093256935477257,
4.5250000000000004,-0.023271244019269943,
4.5274999999999999,-0.024064581841230392,
4.5300000000000002,-0.023920338600873947,
4.5324999999999998,-0.022838514298200607,
4.5350000000000001,-0.021131634712219238,
4.5374999999999996,-0.018799703568220139,
4.54,-0.012597243301570415,
4.5425000000000004,-0.0088469190523028374,
4.5449999999999999,-0.0046879053115844727,
4.5475000000000003,-0.00019232432532589883,
4.5499999999999998,0.0094719734042882919,
4.5525000000000002,0.014328162185847759,
4.5549999999999997,0.018847784027457237,
4.5575000000000001,0.022694271057844162,
4.5599999999999996,0.027165811508893967,
4.5625,0.027189850807189941,
4.5650000000000004,0.025555094704031944,
4.5674999999999999,0.022213459014892578,
4.5700000000000003,0.011178851127624512,
4.5724999999999998,0.0041109323501586914,
4.5750000000000002,-0.0034137568436563015,
4.5774999999999997,-0.010986527428030968,
4.5800000000000001,-0.024809837341308594,
4.5824999999999996,-0.030531486496329308,
4.585,-0.035291515290737152,
4.5875000000000004,-0.039065878838300705,
4.5899999999999999,-0.044042270630598068,
4.5925000000000002,-0.045460663735866547,
4.5949999999999998,-0.046350162476301193,
4.5975000000000001,-0.046806931495666504,
4.5999999999999996,-0.046879053115844727,
4.6025,-0.045797228813171387,
4.6050000000000004,-0.044499039649963379,
4.6074999999999999,-0.04257579892873764,
4.6100000000000003,-0.036637783050537109,
4.6124999999999998,-0.032743215560913086,
4.6150000000000002,-0.028560161590576172,
4.6174999999999997,-0.024545392021536827,
4.6200000000000001,-0.019905567169189453,
4.6224999999999996,-0.020987391471862793,
4.625,-0.02553105354309082,
4.6275000000000004,-0.034233730286359787,
4.6299999999999999,-0.065630674362182617,
4.6325000000000003,-0.087820097804069519,
4.6349999999999998,-0.11303862184286118,
4.6375000000000002,-0.13957938551902771,
4.6399999999999997,-0.18713156878948212,
4.6425000000000001,-0.202445387840271,
4.6449999999999996,-0.20807087421417236,
4.6475,-0.20114719867706299,
4.6500000000000004,-0.1405169665813446,
4.6524999999999999,-0.084238052368164062,
4.6550000000000002,-0.010673999786376953,
4.6574999999999998,0.078588530421257019,
4.6600000000000001,0.29129922389984131,
4.6624999999999996,0.40508311986923218,
4.665,0.51574170589447021,
4.6675000000000004,0.61649560928344727,
4.6699999999999999,0.7620130181312561,
4.6725000000000003,0.79583805799484253,
4.6749999999999998,0.79901140928268433,
4.6775000000000002,0.77061951160430908,
4.6799999999999997,0.62731385231018066,
4.6825000000000001,0.52194416522979736,
4.6849999999999996,0.40337622165679932,
4.6875,0.27966362237930298,
4.6900000000000004,0.048345528542995453,
4.6924999999999999,-0.0461578369140625,
4.6950000000000003,-0.12070755660533905,
4.6974999999999998,-0.17357270419597626,
4.7000000000000002,-0.21749477088451385,
4.7024999999999997,-0.21429738402366638,
4.7050000000000001,-0.19975285232067108,
4.7074999999999996,-0.17835676670074463,
4.71,-0.13054013252258301,
4.7125000000000004,-0.10976910591125488,
4.7149999999999999,-0.093109011650085449,
4.7175000000000002,-0.080848336219787598,
4.7199999999999998,-0.067337557673454285,
4.7225000000000001,-0.064019963145256042,
4.7249999999999996,-0.061567824333906174,
4.7275,-0.059139728546142578,
4.7300000000000004,-0.052576661109924316,
4.7324999999999999,-0.048345528542995453,
4.7350000000000003,-0.043753784149885178,
4.7374999999999998,-0.039138000458478928,
4.7400000000000002,-0.031012296676635742,
4.7424999999999997,-0.027814906090497971,
4.7450000000000001,-0.025218527764081955,
4.7474999999999996,-0.023030837997794151,
4.75,-0.019280513748526573,
4.7525000000000004,-0.017333230003714561,
4.7549999999999999,-0.01521766185760498,
4.7575000000000003,-0.012933811172842979,
4.7599999999999998,-0.0080776214599609375,
4.7625000000000002,-0.0057697296142578125,
4.7649999999999997,-0.0037022433243691921,
4.7675000000000001,-0.0019472837448120117,
4.7699999999999996,0.00060101354029029608,
4.7725,0.0015145540237426758,
4.7750000000000004,0.0023559730034321547,
4.7774999999999999,0.0032214324455708265,
4.7800000000000002,0.0054812431335449219,
4.7824999999999998,0.0069957971572875977,
4.7850000000000001,0.0087747974321246147,
4.7874999999999996,0.0107701625674963,
4.79,0.015169581398367882,
4.7925000000000004,0.017477473244071007,
4.7949999999999999,0.019785365089774132,
4.7975000000000003,0.022141337394714355,
4.7999999999999998,0.026925405487418175,
4.8025000000000002,0.029425621032714844,
4.8049999999999997,0.032021999359130859,
4.8075000000000001,0.034714542329311371,
4.8099999999999996,0.040340028703212738,
4.8125,0.043224893510341644,
4.8150000000000004,0.046085715293884277,
4.8174999999999999,0.048946540802717209,
4.8200000000000003,0.054644148796796799,
4.8224999999999998,0.05755305290222168,
4.8250000000000002,0.060582160949707031,
4.8274999999999997,0.063803598284721375,
4.8300000000000001,0.071087881922721863,
4.8324999999999996,0.075319014489650726,
4.835,0.080030962824821472,
4.8375000000000004,0.085295841097831726,
4.8399999999999999,0.0976286381483078,
4.8425000000000002,0.10464847087860107,
4.8449999999999998,0.11212508380413055,
4.8475000000000001,0.11993825435638428,
4.8499999999999996,0.13568481802940369,
4.8525,0.14316141605377197,
4.8550000000000004,0.15010914206504822,
4.8574999999999999,0.15631160140037537,
4.8600000000000003,0.16614417731761932,
4.8624999999999998,0.16977429389953613,
4.8650000000000002,0.17265915870666504,
4.8674999999999997,0.17496705055236816,
4.8700000000000001,0.17866930365562439,
4.8724999999999996,0.18040022253990173,
4.875,0.18227538466453552,
4.8775000000000004,0.18431882560253143,
4.8799999999999999,0.18893460929393768,
4.8825000000000003,0.19129058718681335,
4.8849999999999998,0.19340614974498749,
4.8875000000000002,0.19506494700908661,
4.8899999999999997,0.19571404159069061,
4.8925000000000001,0.19412736594676971,
4.8949999999999996,0.19092997908592224,
4.8975,0.18590550124645233,
4.9000000000000004,0.17030319571495056,
4.9024999999999999,0.15994171798229218,
4.9050000000000002,0.14820992946624756,
4.9074999999999998,0.13554057478904724,
4.9100000000000001,0.1090959757566452,
4.9124999999999996,0.096186205744743347,
4.915,0.083973608911037445,
4.9175000000000004,0.072650514543056488,
4.9199999999999999,0.05288919061422348,
4.9225000000000003,0.044306717813014984,
4.9249999999999998,0.036301217973232269,
4.9275000000000002,0.028680365532636642,
4.9299999999999997,0.013871392235159874,
4.9325000000000001,0.0064669055864214897,
4.9349999999999996,-0.00098566222004592419,
4.9375,-0.0083661079406738281,
4.9400000000000004,-0.022622149437665939,
4.9424999999999999,-0.029209256172180176,
4.9450000000000003,-0.035267472267150879,
4.9474999999999998,-0.040748715400695801,
4.9500000000000002,-0.049860082566738129,
4.9524999999999997,-0.053442120552062988,
4.9550000000000001,-0.05642315000295639,
4.9574999999999996,-0.058779120445251465,
4.96,-0.061712067574262619,
4.9625000000000004,-0.062361162155866623,
4.9649999999999999,-0.062529444694519043,
4.9675000000000002,-0.062361162155866623,
4.9699999999999998,-0.061615906655788422,
4.9725000000000001,-0.061399541795253754,
4.9749999999999996,-0.061519742012023926,
4.9775,-0.062048636376857758,
4.9800000000000004,-0.064476728439331055,
4.9824999999999999,-0.066159568727016449,
4.9850000000000003,-0.067914530634880066,
4.9874999999999998,-0.069501206278800964,
4.9900000000000002,-0.071232125163078308,
4.9924999999999997,-0.07101576030254364,
4.9950000000000001,-0.070030093193054199,
4.9974999999999996,-0.068347260355949402,
5,-0.063563190400600433,86.642601013183594
5.0025000000000004,-0.060990851372480392,
5.0049999999999999,-0.05863487720489502,
5.0075000000000003,-0.05675971508026123,
5.0099999999999998,-0.054860513657331467,
5.0125000000000002,-0.054932635277509689,
5.0149999999999997,-0.055533647537231445,
5.0175000000000001,-0.056543350219726562,
5.0199999999999996,-0.057745378464460373,
5.0225,-0.059957109391689301,
5.0250000000000004,-0.060654282569885254,
5.0274999999999999,-0.06091872975230217,
5.0300000000000002,-0.060197513550519943,
5.0324999999999998,-0.059283971786499023,
5.0350000000000001,-0.058130025863647461,
5.0374999999999996,-0.056903958320617676,
5.04,-0.054596066474914551,
5.0425000000000004,-0.053778689354658127,
5.0449999999999999,-0.05322575569152832,
5.0475000000000003,-0.052985351532697678,
5.0499999999999998,-0.053394041955471039,
5.0525000000000002,-0.053898893296718597,
5.0549999999999997,-0.054523944854736328,
5.0575000000000001,-0.055173039436340332,
5.0599999999999996,-0.055774055421352386,
5.0625,-0.056519310921430588,
5.0650000000000004,-0.056543350219726562,
5.0674999999999999,-0.05630294606089592,
5.0700000000000003,-0.054836474359035492,
5.0724999999999998,-0.053610406816005707,
5.0750000000000002,-0.052047770470380783,
5.0774999999999997,-0.050172608345746994,
5.0800000000000001,-0.045845311135053635,
5.0824999999999996,-0.043585501611232758,
5.085,-0.041469931602478027,
5.0875000000000004,-0.039642851799726486,
5.0899999999999999,-0.037479203194379807,
5.0925000000000002,-0.037310920655727386,
5.0949999999999998,-0.037767689675092697,
5.0975000000000001,-0.03875335305929184,
5.0999999999999996,-0.041614174842834473,
5.1025,-0.042960446327924728,
5.1050000000000004,-0.043946109712123871,
5.1074999999999999,-0.044330757111310959,
5.1100000000000003,-0.042984485626220703,
5.1124999999999998,-0.041277609765529633,
5.1150000000000002,-0.039113961160182953,
5.1174999999999997,-0.036733947694301605,
5.1200000000000001,-0.032598972320556641,
5.1224999999999996,-0.031348865479230881,
5.125,-0.030868053436279297,
5.1275000000000004,-0.03122866153717041,
5.1299999999999999,-0.033993326127529144,
5.1325000000000003,-0.035988688468933105,
5.1349999999999998,-0.03796001523733139,
5.1375000000000002,-0.039642851799726486,
5.1399999999999997,-0.041157405823469162,
5.1425000000000001,-0.040724676102399826,
5.1449999999999996,-0.039498608559370041,
5.1475,-0.037623446434736252,
5.1500000000000004,-0.032791297882795334,
5.1524999999999999,-0.030387243255972862,
5.1550000000000002,-0.028319757431745529,
5.1574999999999998,-0.026829242706298828,
5.1600000000000001,-0.02598782442510128,
5.1624999999999996,-0.026636919006705284,
5.165,-0.027911067008972168,
5.1675000000000004,-0.029666027054190636,
5.1699999999999999,-0.033873122185468674,
5.1725000000000003,-0.035964649170637131,
5.1749999999999998,-0.037791728973388672,
5.1775000000000002,-0.039258204400539398,
5.1799999999999997,-0.040796797722578049,
5.1825000000000001,-0.040796797722578049,
5.1849999999999996,-0.04029194638133049,
5.1875,-0.03937840461730957,
5.1900000000000004,-0.036661826074123383,
5.1924999999999999,-0.035051107406616211,
5.1950000000000003,-0.033416353166103363,
5.1974999999999998,-0.031853716820478439,
5.2000000000000002,-0.029040973633527756,
5.2024999999999997,-0.027742784470319748,
5.2050000000000001,-0.026468634605407715,
5.2074999999999996,-0.025146406143903732,
5.21,-0.022069215774536133,
5.2125000000000004,-0.02029021643102169,
5.2149999999999999,-0.018439095467329025,
5.2175000000000002,-0.016587972640991211,
5.2199999999999998,-0.01353482436388731,
5.2225000000000001,-0.012645324692130089,
5.2249999999999996,-0.012332797050476074,
5.2275,-0.012645324692130089,
5.2300000000000004,-0.014953216537833214,
5.2324999999999999,-0.016636054962873459,
5.2350000000000003,-0.018318891525268555,
5.2374999999999998,-0.019689202308654785,
5.2400000000000002,-0.02029021643102169,
5.2424999999999997,-0.019016068428754807,
5.2450000000000001,-0.016515851020812988,
5.2474999999999996,-0.01276552677154541,
5.25,-0.002091526985168457,
5.2525000000000004,0.0042792162857949734,
5.2549999999999999,0.010818243026733398,
5.2575000000000003,0.017044743523001671,
5.2599999999999998,0.026877325028181076,
5.2625000000000002,0.029714107513427734,
5.2649999999999997,0.030819972977042198,
5.2675000000000001,0.030074715614318848,
5.2699999999999996,0.023391446098685265,
5.2725,0.017886161804199219,
5.2750000000000004,0.011347135528922081,
5.2774999999999999,0.0042311353608965874,
5.2800000000000002,-0.010241270065307617,
5.2824999999999998,-0.016828378662467003,
5.2850000000000001,-0.022646188735961914,
5.2874999999999996,-0.027502378448843956,
5.29,-0.034185647964477539,
5.2925000000000004,-0.036084853112697601,
5.2949999999999999,-0.037214756011962891,
5.2975000000000003,-0.037719607353210449,
5.2999999999999998,-0.037527285516262054,
5.3025000000000002,-0.037118595093488693,
5.3049999999999997,-0.036565661430358887,
5.3075000000000001,-0.035916566848754883,
5.3099999999999996,-0.034065447747707367,
5.3125,-0.032791297882795334,
5.3150000000000004,-0.031252704560756683,
5.3174999999999999,-0.029593905434012413,
5.3200000000000003,-0.026949446648359299,
5.3224999999999998,-0.026925405487418175,
5.3250000000000002,-0.028584202751517296,
5.3274999999999997,-0.032598972320556641,
5.3300000000000001,-0.050172608345746994,
5.3324999999999996,-0.064452692866325378,
5.335,-0.082290768623352051,
5.3375000000000004,-0.1031339168548584,
5.3399999999999999,-0.14888307452201843,
5.3425000000000002,-0.17011086642742157,
5.3449999999999998,-0.18710753321647644,
5.3475000000000001,-0.19715647399425507,
5.3499999999999996,-0.18542468547821045,
5.3525,-0.15873968601226807,
5.3550000000000004,-0.11575520038604736,
5.3574999999999999,-0.055701933801174164,
5.3600000000000003,0.11299054324626923,
5.3624999999999998,0.21701395511627197,
5.3650000000000002,0.32875439524650574,
5.3674999999999997,0.44261038303375244,
5.3700000000000001,0.65015238523483276,
5.3724999999999996,0.73001503944396973,
5.375,0.78554868698120117,
5.3775000000000004,0.81204140186309814,
5.3799999999999999,0.76929730176925659,
5.3825000000000003,0.70171934366226196,
5.3849999999999998,0.60853821039199829,
5.3875000000000002,0.49619674682617188,
5.3899999999999997,0.24605493247509003,
5.3925000000000001,0.12496273219585419,
5.3949999999999996,0.016419690102338791,
5.3975,-0.074068903923034668,
5.4000000000000004,-0.18967986106872559,
5.4024999999999999,-0.21468202769756317,
5.4050000000000002,-0.22093257308006287,
5.4074999999999998,-0.21247029304504395,
5.4100000000000001,-0.16977429389953613,
5.4124999999999996,-0.14417111873626709,
5.415,-0.12025078386068344,
5.4175000000000004,-0.1000567302107811,
5.4199999999999999,-0.073732338845729828,
5.4225000000000003,-0.066856741905212402,
5.4249999999999998,-0.062793895602226257,
5.4275000000000002,-0.060341756790876389,
5.4299999999999997,-0.055966377258300781,
5.4325000000000001,-0.052720904350280762,
5.4349999999999996,-0.048513811081647873,
5.4375,-0.04353741928935051,
5.4400000000000004,-0.032791297882795334,
5.4424999999999999,-0.027911067008972168,
5.4450000000000003,-0.023872256278991699,
5.4474999999999998,-0.020795067772269249,
5.4500000000000002,-0.017621716484427452,
5.4524999999999997,-0.017164945602416992,
5.4550000000000001,-0.017116865143179893,
5.4574999999999996,-0.017140906304121017,
5.46,-0.016419690102338791,
5.4625000000000004,-0.015313824638724327,
5.4649999999999999,-0.013630986213684082,
5.4675000000000002,-0.01139521598815918,
5.4699999999999998,-0.0056495270691812038,
5.4725000000000001,-0.002476175781339407,
5.4749999999999996,0.00064909458160400391,
5.4775,0.0036060810089111328,
5.4800000000000004,0.0085824728012084961,
5.4824999999999999,0.010553797706961632,
5.4850000000000003,0.012188553810119629,
5.4874999999999998,0.013606945984065533,
5.4900000000000002,0.0161312036216259,
5.4924999999999997,0.017477473244071007,
5.4950000000000001,0.018992027267813683,
5.4974999999999996,0.020722946152091026,
5.5,0.025098323822021484,
5.5025000000000004,0.027742784470319748,
5.5049999999999999,0.030675729736685753,
5.5075000000000003,0.033849082887172699,
5.5099999999999998,0.040700636804103851,
5.5125000000000002,0.044282674789428711,
5.5149999999999997,0.047840677201747894,
5.5175000000000001,0.051350593566894531,
5.5199999999999996,0.057937704026699066,
5.5225,0.060966812074184418,
5.5250000000000004,0.063851676881313324,
5.5274999999999999,0.066616341471672058,
5.5300000000000002,0.072145663201808929,
5.5324999999999998,0.075126692652702332,
5.5350000000000001,0.078444287180900574,
5.5374999999999996,0.082146525382995605,
5.54,0.090993449091911316,
5.5425000000000004,0.096186205744743347,
5.5449999999999999,0.10185977071523666,
5.5475000000000003,0.10794202983379364,
5.5499999999999998,0.12102007865905762,
5.5525000000000002,0.12784759700298309,
5.5549999999999997,0.13477127254009247,
5.5575000000000001,0.14171898365020752,
5.5599999999999996,0.15520572662353516,
5.5625,0.16155242919921875,
5.5650000000000004,0.16744236648082733,
5.5674999999999999,0.17275533080101013,
5.5700000000000003,0.18119356036186218,
5.5724999999999998,0.18417458236217499,
5.5750000000000002,0.18631419539451599,
5.5774999999999997,0.1877085417509079,
5.5800000000000001,0.18900673091411591,
5.5824999999999996,0.18927118182182312,
5.585,0.18951158225536346,
5.5875000000000004,0.18980006873607635,
5.5899999999999999,0.19030492007732391,
5.5925000000000002,0.19013664126396179,
5.5949999999999998,0.1892952173948288,
5.5975000000000001,0.18739601969718933,
5.5999999999999996,0.17917415499687195,
5.6025,0.17244279384613037,
5.6050000000000004,0.16395649313926697,
5.6074999999999999,0.15383541584014893,
5.6100000000000003,0.12991508841514587,
5.6124999999999998,0.1169331893324852,
5.6150000000000002,0.10380705446004868,
5.6174999999999997,0.090921327471733093,
5.6200000000000001,0.066832706332206726,
5.6224999999999996,0.055894255638122559,
5.625,0.045725107192993164,
5.6275000000000004,0.036301217973232269,
5.6299999999999999,0.019352635368704796,
5.6325000000000003,0.011707743629813194,
5.6349999999999998,0.0045917434617877007,
5.6375000000000002,-0.0020194053649902344,
5.6399999999999997,-0.013679067604243755,
5.6425000000000001,-0.018799703568220139,
5.6449999999999996,-0.023511648178100586,
5.6475,-0.027887027710676193,
5.6500000000000004,-0.036108892410993576,
5.6524999999999999,-0.040147703140974045,
5.6550000000000002,-0.044210553169250488,
5.6574999999999998,-0.048249363899230957,
5.6600000000000001,-0.055894255638122559,
5.6624999999999996,-0.059139728546142578,
5.665,-0.061784189194440842,
5.6675000000000004,-0.063611268997192383,
5.6699999999999999,-0.0646209716796875,
5.6725000000000003,-0.063899755477905273,
5.6749999999999998,-0.062601566314697266,
5.6775000000000002,-0.060966812074184418,
5.6799999999999997,-0.058033864945173264,
5.6825000000000001,-0.057312648743391037,
5.6849999999999996,-0.057336688041687012,
5.6875,-0.058154068887233734,
5.6900000000000004,-0.06183227151632309,
5.6924999999999999,-0.064260363578796387,
5.6950000000000003,-0.066688463091850281,
5.6974999999999998,-0.068828068673610687,
5.7000000000000002,-0.071424447000026703,
5.7024999999999997,-0.071640811860561371,
5.7050000000000001,-0.071160003542900085,
5.7074999999999996,-0.070126257836818695,
5.71,-0.067241393029689789,
5.7125000000000004,-0.065871082246303558,
5.7149999999999999,-0.064789257943630219,
5.7175000000000002,-0.064116120338439941,
5.7199999999999998,-0.064140163362026215,
5.7225000000000001,-0.064717136323451996,
5.7249999999999996,-0.065462395548820496,
5.7275,-0.066279768943786621,
5.7300000000000004,-0.067553922533988953,
5.7324999999999999,-0.067842409014701843,
5.7350000000000003,-0.067890487611293793,
5.7374999999999998,-0.067770287394523621,
5.7400000000000002,-0.067217350006103516,
5.7424999999999997,-0.066976949572563171,
5.7450000000000001,-0.066808663308620453,
5.7474999999999996,-0.066712498664855957,
5.75,-0.066592298448085785,
5.7525000000000004,-0.066424012184143066,
5.7549999999999999,-0.066039368510246277,
5.7575000000000003,-0.065414309501647949,
5.7599999999999998,-0.063274703919887543,
5.7625000000000002,-0.06183227151632309,
5.7649999999999997,-0.060293674468994141,
5.7675000000000001,-0.058731041848659515,
5.7699999999999996,-0.056014459580183029,
5.7725,-0.05505283921957016,
5.7750000000000004,-0.054403744637966156,
5.7774999999999999,-0.054067175835371017,
5.7800000000000002,-0.054091215133666992,
5.7824999999999998,-0.054259501397609711,
5.7850000000000001,-0.054403744637966156,
5.7874999999999996,-0.054403744637966156,
5.79,-0.053682528436183929,
5.7925000000000004,-0.05288919061422348,
5.7949999999999999,-0.051759283989667892,
5.7975000000000003,-0.050340890884399414,
5.7999999999999998,-0.046927135437726974,
5.8025000000000002,-0.045148134231567383,
5.8049999999999997,-0.043489336967468262,
5.8075000000000001,-0.042046904563903809,
5.8099999999999996,-0.04029194638133049,
5.8125,-0.040099620819091797,
5.8150000000000004,-0.040315985679626465,
5.8174999999999999,-0.040892958641052246,
5.8200000000000003,-0.04245559498667717,
5.8224999999999998,-0.043104689568281174,
5.8250000000000002,-0.043417215347290039,
5.8274999999999997,-0.043297015130519867,
5.8300000000000001,-0.041566096246242523,
5.8324999999999996,-0.04012366384267807,
5.835,-0.038464866578578949,
5.8375000000000004,-0.036830108612775803,
5.8399999999999999,-0.03442605584859848,
5.8425000000000002,-0.033921204507350922,
5.8449999999999998,-0.034017365425825119,
5.8475000000000001,-0.034642420709133148,
5.8499999999999996,-0.037046473473310471,
5.8525,-0.038464866578578949,
5.8550000000000004,-0.039763055741786957,
5.8574999999999999,-0.040772758424282074,
5.8600000000000003,-0.041325688362121582,
5.8624999999999998,-0.040700636804103851,
5.8650000000000002,-0.039450526237487793,
5.8674999999999997,-0.037599407136440277,
5.8700000000000001,-0.032430689781904221,
5.8724999999999996,-0.029353499412536621,
5.875,-0.026180148124694824,
5.8775000000000004,-0.023102959617972374,
5.8799999999999999,-0.018174648284912109,
5.8825000000000003,-0.016708176583051682,
5.8849999999999998,-0.016083121299743652,
5.8875000000000002,-0.016347568482160568,
5.8899999999999997,-0.019280513748526573,
5.8925000000000001,-0.021468203514814377,
5.8949999999999996,-0.023728013038635254,
5.8975,-0.025675296783447266,
5.9000000000000004,-0.027045607566833496,
5.9024999999999999,-0.025963783264160156,
5.9050000000000002,-0.023559730499982834,
5.9074999999999998,-0.019881527870893478,
5.9100000000000001,-0.0097364187240600586,
5.9124999999999996,-0.0040147705003619194,
5.915,0.0015866756439208984,
5.9175000000000004,0.0066351890563964844,
5.9199999999999999,0.013919472694396973,
5.9225000000000003,0.015794634819030762,
5.9249999999999998,0.016443729400634766,
5.9275000000000002,0.015866756439208984,
5.9299999999999997,0.01139521598815918,
5.9325000000000001,0.0076929731294512749,
5.9349999999999996,0.0031252703629434109,
5.9375,-0.0021876893006265163,
5.9400000000000004,-0.014520486816763878,
5.9424999999999999,-0.021107595413923264,
5.9450000000000003,-0.027622580528259277,
5.9474999999999998,-0.033728878945112228,
5.9500000000000002,-0.04353741928935051,
5.9524999999999997,-0.046806931495666504,
5.9550000000000001,-0.048898458480834961,
5.9574999999999996,-0.049884121865034103,
5.96,-0.049595635384321213,
5.9625000000000004,-0.048922501504421234,
5.9649999999999999,-0.04832148551940918,
5.9675000000000002,-0.04798492044210434,
5.9699999999999998,-0.048081081360578537,
5.9725000000000001,-0.048177242279052734,
5.9749999999999996,-0.04798492044210434,
5.9775,-0.047263704240322113,
5.9800000000000004,-0.043946109712123871,
5.9824999999999999,-0.041830539703369141,
5.9850000000000003,-0.040147703140974045,
5.9874999999999998,-0.039763055741786957,
5.9900000000000002,-0.046566527336835861,
5.9924999999999997,-0.055389404296875,
5.9950000000000001,-0.068395338952541351,
5.9974999999999996,-0.085488162934780121,
6,-0.12844860553741455,85.365852355957031
6.0025000000000004,-0.15107075870037079,
6.0049999999999999,-0.17140905559062958,
6.0075000000000003,-0.1866748034954071,
6.0099999999999998,-0.19025683403015137,
6.0125000000000002,-0.17309188842773438,
6.0149999999999997,-0.14034867286682129,
6.0175000000000001,-0.090801119804382324,
6.0199999999999996,0.058250229805707932,
6.0225,0.15431623160839081,
6.0250000000000004,0.26016673445701599,
6.0274999999999999,0.37075322866439819,
6.0300000000000002,0.58134835958480835,
6.0324999999999998,0.66782218217849731,
6.0350000000000001,0.73318839073181152,
6.0374999999999996,0.77220618724822998,
6.04,0.75910413265228271,
6.0425000000000004,0.7065274715423584,
6.0449999999999999,0.62683308124542236,
6.0475000000000003,0.52550220489501953,
6.0499999999999998,0.2868276834487915,
6.0525000000000002,0.16559123992919922,
6.0549999999999997,0.053249798715114594,
6.0575000000000001,-0.044018231332302094,
6.0599999999999996,-0.17823657393455505,
6.0625,-0.21290302276611328,
6.0650000000000004,-0.2277120053768158,
6.0674999999999999,-0.21174907684326172,
6.0700000000000003,-0.18967986106872559,
6.0724999999999998,-0.16400456428527832,
6.0750000000000002,-0.13835331797599792,
6.0774999999999997,-0.11541863530874252,
6.0800000000000001,-0.083228349685668945,
6.0824999999999996,-0.074357390403747559,
6.085,-0.069356963038444519,
6.0875000000000004,-0.066303811967372894,
6.0899999999999999,-0.065895125269889832,
6.0925000000000002,-0.065053701400756836,
6.0949999999999998,-0.06325066089630127,
6.0975000000000001,-0.060341756790876389,
6.0999999999999996,-0.05180736631155014,
6.1025,-0.046830974519252777,
6.1050000000000004,-0.041830539703369141,
6.1074999999999999,-0.032791297882795334,
6.1100000000000003,-0.028992891311645508,
6.1124999999999998,-0.025651257485151291,
6.1150000000000002,-0.022670229896903038,
6.1174999999999997,-0.017357271164655685,
6.1200000000000001,-0.014881094917654991,
6.1224999999999996,-0.012501081451773643,
6.125,-0.010265311226248741,
6.1275000000000004,-0.0082699460908770561,
6.1299999999999999,-0.0053129596635699272,
6.1325000000000003,-0.0044475002214312553,
6.1349999999999998,-0.0039426488801836967,
6.1375000000000002,-0.0036060810089111328,
6.1399999999999997,-0.0034137568436563015,
6.1425000000000001,-0.0029569864273071289,
6.1449999999999996,-0.002043446060270071,
6.1475,0.0014424324035644531,
6.1500000000000004,0.0040628514252603054,
6.1524999999999999,0.007091959472745657,
6.1550000000000002,0.010433594696223736,
6.1574999999999998,0.013823310844600201,
6.1600000000000001,0.020218094810843468,
6.1624999999999996,0.022958716377615929,
6.165,0.0253627710044384,
6.1675000000000004,0.029353499412536621,
6.1699999999999999,0.031180581077933311,
6.1725000000000003,0.033079784363508224,
6.1749999999999998,0.035171311348676682,
6.1775000000000002,0.04017174243927002,
6.1799999999999997,0.043080650269985199,
6.1825000000000001,0.046278040856122971,
6.1849999999999996,0.049667757004499435,
6.1875,0.056976079940795898,
6.1900000000000004,0.060942769050598145,
6.1924999999999999,0.065173909068107605,
6.1950000000000003,0.069741606712341309,
6.1974999999999998,0.080175206065177917,
6.2000000000000002,0.086065135896205902,
6.2024999999999997,0.092363759875297546,
6.2050000000000001,0.098926827311515808,
6.2074999999999996,0.11210104078054428,
6.21,0.11830350011587143,
6.2125000000000004,0.12397706508636475,
6.2149999999999999,0.12907366454601288,
6.2175000000000002,0.13739168643951416,
6.2199999999999998,0.1408054530620575,
6.2225000000000001,0.14393071830272675,
6.2249999999999996,0.14698386192321777,
6.2275,0.15349885821342468,
6.2300000000000004,0.15712897479534149,
6.2324999999999999,0.16099950671195984,
6.2350000000000003,0.16496619582176208,
6.2374999999999998,0.17258703708648682,
6.2400000000000002,0.17580847442150116,
6.2424999999999997,0.17833273112773895,
6.2450000000000001,0.17999152839183807,
6.2474999999999996,0.18068870902061462,
6.25,0.17888566851615906,
6.2525000000000004,0.17636141180992126,
6.2549999999999999,0.17280340194702148,
6.2575000000000003,0.16273042559623718,
6.2599999999999998,0.1562875509262085,
6.2625000000000002,0.14900326728820801,
6.2649999999999997,0.14087757468223572,
6.2675000000000001,0.12246251106262207,
6.2699999999999996,0.112269327044487,
6.2725,0.10152320563793182,
6.2750000000000004,0.090320311486721039,
6.2774999999999999,0.067000985145568848,
6.2800000000000002,0.055149000138044357,
6.2824999999999998,0.04336913675069809,
6.2850000000000001,0.031853716820478439,
6.2874999999999996,0.01028935145586729,
6.29,0.00057697296142578125,
6.2925000000000004,-0.0082699460908770561,
6.2949999999999999,-0.016179284080862999,
6.2975000000000003,-0.029209256172180176,
6.2999999999999998,-0.034450095146894455,
6.3025000000000002,-0.03904183954000473,
6.3049999999999997,-0.043104689568281174,
6.3075000000000001,-0.050316851586103439,
6.3099999999999996,-0.053658485412597656,
6.3125,-0.056879919022321701,
6.3150000000000004,-0.059981148689985275,
6.3174999999999999,-0.065582595765590668,
6.3200000000000003,-0.067938566207885742,
6.3224999999999998,-0.069909892976284027,
6.3250000000000002,-0.071424447000026703,
6.3274999999999997,-0.073251530528068542,
6.3300000000000001,-0.073708295822143555,
6.3324999999999996,-0.073948703706264496,
6.335,-0.074141025543212891,
6.3375000000000004,-0.0745977982878685,
6.3399999999999999,-0.075006484985351562,
6.3425000000000002,-0.075487300753593445,
6.3449999999999998,-0.07601618766784668,
6.3475000000000001,-0.076881647109985352,
6.3499999999999996,-0.07704993337392807,
6.3525,-0.076953768730163574,
6.3550000000000004,-0.076545082032680511,
6.3574999999999999,-0.07493436336517334,
6.3600000000000003,-0.0738525390625,
6.3624999999999998,-0.072722636163234711,
6.3650000000000002,-0.071664854884147644,
6.3674999999999997,-0.07027050107717514,
6.3700000000000001,-0.070102214813232422,
6.3724999999999996,-0.070342622697353363,
6.375,-0.071039795875549316,
6.3775000000000004,-0.07351597398519516,
6.3799999999999999,-0.075126692652702332,
6.3825000000000003,-0.076833568513393402,
6.3849999999999998,-0.07846832275390625,
6.3875000000000002,-0.081088744103908539,
6.3899999999999997,-0.081834003329277039,
6.3925000000000001,-0.082146525382995605,
6.3949999999999996,-0.08200228214263916,
6.3975,-0.080559849739074707,
6.4000000000000004,-0.079453989863395691,
6.4024999999999999,-0.078227922320365906,
6.4050000000000002,-0.077001854777336121,
6.4074999999999998,-0.075895987451076508,
6.4100000000000001,-0.074189111590385437,
6.4124999999999996,-0.073660217225551605,
6.415,-0.073275566101074219,
6.4175000000000004,-0.072746679186820984,
6.4199999999999999,-0.07243414968252182,
6.4225000000000003,-0.072001419961452484,
6.4249999999999998,-0.07135232537984848,
6.4275000000000002,-0.069405041635036469,
6.4299999999999997,-0.068082809448242188,
6.4325000000000001,-0.066592298448085785,
6.4349999999999996,-0.064981579780578613,
6.4375,-0.061784189194440842,
6.4400000000000004,-0.060317717492580414,
6.4424999999999999,-0.059067606925964355,
6.4450000000000003,-0.058057904243469238,
6.4474999999999998,-0.05675971508026123,
6.4500000000000002,-0.05647122859954834,
6.4524999999999997,-0.056375067681074142,
6.4550000000000001,-0.05642315000295639,
6.4574999999999996,-0.056855879724025726,
6.46,-0.057168405503034592,
6.4625000000000004,-0.057480931282043457,
6.4649999999999999,-0.057817500084638596,
6.4675000000000002,-0.058346390724182129,
6.4699999999999998,-0.058466594666242599,
6.4725000000000001,-0.058418512344360352,
6.4749999999999996,-0.058105986565351486,
6.4775,-0.05647122859954834,
6.4800000000000004,-0.055124960839748383,
6.4824999999999999,-0.053394041955471039,
6.4850000000000003,-0.051422715187072754,
6.4874999999999998,-0.047167539596557617,
6.4900000000000002,-0.045196216553449631,
6.4924999999999997,-0.04353741928935051,
6.4950000000000001,-0.042311351746320724,
6.4974999999999996,-0.041325688362121582,
6.5,-0.041493974626064301,
6.5025000000000004,-0.041950743645429611,
6.5049999999999999,-0.04262387752532959,
6.5075000000000003,-0.044018231332302094,
6.5099999999999998,-0.044643282890319824,
6.5125000000000002,-0.045220255851745605,
6.5149999999999997,-0.045773189514875412,
6.5175000000000001,-0.047167539596557617,
6.5199999999999996,-0.048105120658874512,
6.5225,-0.049283109605312347,
6.5250000000000004,-0.050581298768520355,
6.5274999999999999,-0.053273838013410568,
6.5300000000000002,-0.054379701614379883,
6.5324999999999998,-0.055149000138044357,
6.5350000000000001,-0.055509608238935471,
6.5374999999999996,-0.055365364998579025,
6.54,-0.053682528436183929,
6.5425000000000004,-0.052288174629211426,
6.5449999999999999,-0.050629377365112305,
6.5475000000000003,-0.046975217759609222,
6.5499999999999998,-0.045148134231567383,
6.5525000000000002,-0.043393176048994064,
6.5549999999999997,-0.041806500405073166,
6.5575000000000001,-0.03908991813659668,
6.5599999999999996,-0.038032136857509613,
6.5625,-0.037166677415370941,
6.5650000000000004,-0.036493539810180664,
6.5674999999999999,-0.035700201988220215,
6.5700000000000003,-0.035531919449567795,
6.5724999999999998,-0.035483837127685547,
6.5750000000000002,-0.03555595874786377,
6.5774999999999997,-0.035940609872341156,
6.5800000000000001,-0.036277174949645996,
6.5824999999999996,-0.036685865372419357,
6.585,-0.037190716713666916,
6.5875000000000004,-0.038272541016340256,
6.5899999999999999,-0.038705270737409592,
6.5925000000000002,-0.038849513977766037,
6.5949999999999998,-0.038585066795349121,
6.5975000000000001,-0.036181014031171799,
6.5999999999999996,-0.033825039863586426,
6.6025,-0.030627649277448654,
6.6050000000000004,-0.026660960167646408,
6.6074999999999999,-0.016972621902823448,
6.6100000000000003,-0.011731783859431744,
6.6124999999999998,-0.006611148826777935,
6.6150000000000002,-0.0019472837448120117,
6.6174999999999997,0.0049042701721191406,
6.6200000000000001,0.0066832704469561577,
6.6224999999999996,0.0071881217882037163,
6.625,0.0064669055864214897,
6.6275000000000004,0.0015626351814717054,
6.6299999999999999,-0.002259810920804739,
6.6325000000000003,-0.0067553920671343803,
6.6349999999999998,-0.011707743629813194,
6.6375000000000002,-0.022165378555655479,
6.6399999999999997,-0.027310054749250412,
6.6425000000000001,-0.032262407243251801,
6.6449999999999996,-0.036902230232954025,
6.6475,-0.044979851692914963,
6.6500000000000004,-0.048393607139587402,
6.6524999999999999,-0.051350593566894531,
6.6550000000000002,-0.053850810974836349,
6.6574999999999998,-0.057480931282043457,
6.6600000000000001,-0.058514676988124847,
6.6624999999999996,-0.058971446007490158,
6.665,-0.058731041848659515,
6.6675000000000004,-0.056014459580183029,
6.6699999999999999,-0.053538285195827484,
6.6725000000000003,-0.050533216446638107,
6.6749999999999998,-0.047263704240322113,
6.6775000000000002,-0.042143069207668304,
6.6799999999999997,-0.041662257164716721,
6.6825000000000001,-0.043561458587646484,
6.6849999999999996,-0.048634015023708344,
6.6875,-0.070150300860404968,
6.6900000000000004,-0.086810395121574402,
6.6924999999999999,-0.10683616250753403,
6.6950000000000003,-0.12921790778636932,
6.6974999999999998,-0.17458240687847137,
6.7000000000000002,-0.19338211417198181,
6.7024999999999997,-0.20636400580406189,
6.7050000000000001,-0.21090766787528992,
6.7074999999999996,-0.18499195575714111,
6.71,-0.15049378573894501,
6.7125000000000004,-0.099912486970424652,
6.7149999999999999,-0.033031702041625977,
6.7175000000000002,0.14496445655822754,
6.7199999999999998,0.25059860944747925,
6.7225000000000001,0.36147356033325195,
6.7249999999999996,0.47184368968009949,
6.7275,0.66464883089065552,
6.7300000000000004,0.73374134302139282,
6.7324999999999999,0.77691817283630371,
6.7350000000000003,0.79018855094909668,
6.7374999999999998,0.72179317474365234,
6.7400000000000002,0.64368546009063721,
6.7424999999999997,0.54257094860076904,
6.7450000000000001,0.42561373114585876,
6.7474999999999996,0.17703454196453094,
6.75,0.061808228492736816,
6.7525000000000004,-0.038224458694458008,
6.7549999999999999,-0.11849582195281982,
6.7575000000000003,-0.21247029304504395,
6.7599999999999998,-0.22802452743053436,
6.7625000000000002,-0.22672633826732635,
6.7649999999999997,-0.21299919486045837,
6.7675000000000001,-0.16684135794639587,
6.7699999999999996,-0.14244019985198975,
6.7725,-0.12097200006246567,
6.7750000000000004,-0.10397534072399139,
6.7774999999999999,-0.08416593074798584,
6.7800000000000002,-0.079982876777648926,
6.7824999999999998,-0.078059636056423187,
6.7850000000000001,-0.077170133590698242,
6.7874999999999996,-0.074766084551811218,
6.79,-0.072145663201808929,
6.7925000000000004,-0.068443417549133301,
6.7949999999999999,-0.063803598284721375,
6.7975000000000003,-0.053081512451171875,
6.7999999999999998,-0.047696433961391449,
6.8025000000000002,-0.042671959847211838,
6.8049999999999997,-0.038200419396162033,
6.8075000000000001,-0.03122866153717041,
6.8099999999999996,-0.028728445991873741,
6.8125,-0.026829242706298828,
6.8150000000000004,-0.025410851463675499,
6.8174999999999999,-0.023728013038635254,
6.8200000000000003,-0.023223161697387695,
6.8224999999999998,-0.022790431976318359,
6.8250000000000002,-0.022333662956953049,
6.8274999999999997,-0.021035473793745041,
6.8300000000000001,-0.020073851570487022,
6.8324999999999996,-0.018895864486694336,
6.835,-0.017477473244071007,
6.8375000000000004,-0.014111797325313091,
6.8399999999999999,-0.012236635200679302,
6.8425000000000002,-0.01028935145586729,
6.8449999999999998,-0.0082699460908770561,
6.8475000000000001,-0.0039666891098022461,
6.8499999999999996,-0.0016107162227854133,
6.8525,0.00091354054166004062,
6.8550000000000004,0.0035820405464619398,
6.8574999999999999,0.0093036890029907227,
6.8600000000000003,0.012212594971060753,
6.8624999999999998,0.015001296997070312,
6.8650000000000002,0.017573636025190353,
6.8674999999999997,0.021852850914001465,
6.8700000000000001,0.02353568933904171,
6.8724999999999996,0.024978121742606163,
6.875,0.026348432525992393,
6.8775000000000004,0.029641985893249512,
6.8799999999999999,0.031997960060834885,
6.8825000000000003,0.035075150430202484,
6.8849999999999998,0.038969717919826508,
6.8875000000000002,0.049259066581726074,
6.8899999999999997,0.055389404296875,
6.8925000000000001,0.061928432434797287,
6.8949999999999996,0.068659782409667969,
6.8975,0.081641674041748047,
6.9000000000000004,0.087627768516540527,
6.9024999999999999,0.093181133270263672,
6.9050000000000002,0.098373889923095703,
6.9074999999999998,0.10818243026733398,
6.9100000000000001,0.11308670043945312,
6.9124999999999996,0.11820733547210693,
6.915,0.12356837838888168,
6.9175000000000004,0.13498763740062714,
6.9199999999999999,0.14075736701488495,
6.9225000000000003,0.14638285338878632,
6.9249999999999998,0.15164773166179657,
6.9275000000000002,0.16049465537071228,
6.9299999999999997,0.1639324426651001,
6.9325000000000001,0.16674518585205078,
6.9349999999999996,0.16895692050457001,
6.9375,0.17205815017223358,
6.9400000000000004,0.17311593890190125,
6.9424999999999999,0.17383715510368347,
6.9450000000000003,0.17422179877758026,
6.9474999999999998,0.17345249652862549,
6.9500000000000002,0.17201006412506104,
6.9524999999999997,0.16958197951316833,
6.9550000000000001,0.1660720556974411,
6.9574999999999996,0.15530189871788025,
6.96,0.14799356460571289,
6.9625000000000004,0.13945917785167694,
6.9649999999999999,0.12981891632080078,
6.9675000000000002,0.10777374356985092,
6.9699999999999998,0.095753476023674011,
6.9725000000000001,0.083300471305847168,
6.9749999999999996,0.070679187774658203,
6.9775,0.045556824654340744,
6.9800000000000004,0.033488474786281586,
6.9824999999999999,0.021973054856061935,
6.9850000000000003,0.011226932518184185,
6.9874999999999998,-0.0075487298890948296,
6.9900000000000002,-0.015409986488521099,
6.9924999999999997,-0.022237500175833702,
6.9950000000000001,-0.028127431869506836,
6.9974999999999996,-0.037599407136440277,
7,-0.041518013924360275,85.561492919921875
7.0025000000000004,-0.045124094933271408,
7.0049999999999999,-0.048585932701826096,
7.0075000000000003,-0.055269204080104828,
7.0099999999999998,-0.058490633964538574,
7.0125000000000002,-0.061519742012023926,
7.0149999999999997,-0.064188241958618164,
7.0175000000000001,-0.067962609231472015,
7.0199999999999996,-0.06890019029378891,
7.0225,-0.069260798394680023,
7.0250000000000004,-0.069092512130737305,
7.0274999999999999,-0.068227052688598633,
7.0300000000000002,-0.068010687828063965,
7.0324999999999998,-0.068299174308776855,
7.0350000000000001,-0.06923675537109375,
7.0374999999999996,-0.073203444480895996,
7.04,-0.075944066047668457,
7.0425000000000004,-0.078852973878383636,
7.0449999999999999,-0.081545516848564148,
7.0475000000000003,-0.085055433213710785,
7.0499999999999998,-0.085416041314601898,
7.0525000000000002,-0.084815025329589844,
7.0549999999999997,-0.083372592926025391,
7.0575000000000001,-0.079093381762504578,
7.0599999999999996,-0.076977811753749847,
7.0625,-0.075294971466064453,
7.0650000000000004,-0.074333354830741882,
7.0674999999999999,-0.074645876884460449,
7.0700000000000003,-0.075703665614128113,
7.0724999999999998,-0.077025890350341797,
7.0750000000000002,-0.078300043940544128,
7.0774999999999997,-0.079646311700344086,
7.0800000000000001,-0.079453989863395691,
7.0824999999999996,-0.078660652041435242,
7.085,-0.077458620071411133,
7.0875000000000004,-0.074693962931632996,
7.0899999999999999,-0.073636174201965332,
7.0925000000000002,-0.073011122643947601,
7.0949999999999998,-0.072939001023769379,
7.0975000000000001,-0.074092946946620941,
7.0999999999999996,-0.074958406388759613,
7.1025,-0.075703665614128113,
7.1050000000000004,-0.076088309288024902,
7.1074999999999999,-0.075126692652702332,
7.1100000000000003,-0.073756381869316101,
7.1124999999999998,-0.071881219744682312,
7.1150000000000002,-0.069717571139335632,
7.1174999999999997,-0.065606638789176941,
7.1200000000000001,-0.064140163362026215,
7.1224999999999996,-0.063274703919887543,
7.125,-0.063034296035766602,
7.1275000000000004,-0.064068041741847992,
7.1299999999999999,-0.064885422587394714,
7.1325000000000003,-0.065534517168998718,
7.1349999999999998,-0.065774917602539062,
7.1375000000000002,-0.064260363578796387,
7.1399999999999997,-0.06245732307434082,
7.1425000000000001,-0.060077309608459473,
7.1449999999999996,-0.057360731065273285,
7.1475,-0.052119892090559006,
7.1500000000000004,-0.050172608345746994,
7.1524999999999999,-0.048922501504421234,
7.1550000000000002,-0.048465728759765625,
7.1574999999999998,-0.04969179630279541,
7.1600000000000001,-0.051038067787885666,
7.1624999999999996,-0.052576661109924316,
7.165,-0.054067175835371017,
7.1675000000000004,-0.056158702820539474,
7.1699999999999999,-0.05659143254160881,
7.1725000000000003,-0.056543350219726562,
7.1749999999999998,-0.0561346635222435,
7.1775000000000002,-0.054331623017787933,
7.1799999999999997,-0.053081512451171875,
7.1825000000000001,-0.051639080047607422,
7.1849999999999996,-0.050052404403686523,
7.1875,-0.046446323394775391,
7.1900000000000004,-0.044547121971845627,
7.1924999999999999,-0.042647920548915863,
7.1950000000000003,-0.040917001664638519,
7.1974999999999998,-0.038440823554992676,
7.2000000000000002,-0.037935972213745117,
7.2024999999999997,-0.03800809383392334,
7.2050000000000001,-0.038609109818935394,
7.2074999999999996,-0.040989123284816742,
7.21,-0.042431555688381195,
7.2125000000000004,-0.043801866471767426,
7.2149999999999999,-0.04490773007273674,
7.2175000000000002,-0.045869350433349609,
7.2199999999999998,-0.045701067894697189,
7.2225000000000001,-0.045148134231567383,
7.2249999999999996,-0.044330757111310959,
7.2275,-0.042359434068202972,
7.2300000000000004,-0.041421853005886078,
7.2324999999999999,-0.040604472160339355,
7.2350000000000003,-0.039907298982143402,
7.2374999999999998,-0.038873553276062012,
7.2400000000000002,-0.038464866578578949,
7.2424999999999997,-0.038080215454101562,
7.2450000000000001,-0.037719607353210449,
7.2474999999999996,-0.037142634391784668,
7.25,-0.036974351853132248,
7.2525000000000004,-0.03692626953125,
7.2549999999999999,-0.036974351853132248,
7.2575000000000003,-0.037334959954023361,
7.2599999999999998,-0.037527285516262054,
7.2625000000000002,-0.037623446434736252,
7.2649999999999997,-0.037527285516262054,
7.2675000000000001,-0.036421418190002441,
7.2699999999999996,-0.035291515290737152,
7.2725,-0.033825039863586426,
7.2750000000000004,-0.032046042382717133,
7.2774999999999999,-0.027983188629150391,
7.2800000000000002,-0.02598782442510128,
7.2824999999999998,-0.024184783920645714,
7.2850000000000001,-0.022766392678022385,
7.2874999999999996,-0.021299919113516808,
7.29,-0.021299919113516808,
7.2925000000000004,-0.021756689995527267,
7.2949999999999999,-0.022574067115783691,
7.2975000000000003,-0.024689635261893272,
7.2999999999999998,-0.025723379105329514,
7.3025000000000002,-0.026588838547468185,
7.3049999999999997,-0.027189850807189941,
7.3075000000000001,-0.027454297989606857,
7.3099999999999996,-0.027093689888715744,
7.3125,-0.026396512985229492,
7.3150000000000004,-0.025290649384260178,
7.3174999999999999,-0.021564364433288574,
7.3200000000000003,-0.018751621246337891,
7.3224999999999998,-0.015121500007808208,
7.3250000000000002,-0.010625919327139854,
7.3274999999999997,0.00091354054166004062,
7.3300000000000001,0.0076208515092730522,
7.3324999999999996,0.014568567276000977,
7.335,0.021299919113516808,
7.3375000000000004,0.032262407243251801,
7.3399999999999999,0.03555595874786377,
7.3425000000000002,0.036950312554836273,
7.3449999999999998,0.036277174949645996,
7.3475000000000001,0.029137134552001953,
7.3499999999999996,0.023223161697387695,
7.3525,0.016347568482160568,
7.3550000000000004,0.009039243683218956,
7.3574999999999999,-0.0050004324875771999,
7.3600000000000003,-0.011034607887268066,
7.3624999999999998,-0.016179284080862999,
7.3650000000000002,-0.020506581291556358,
7.3674999999999997,-0.027286013588309288,
7.3700000000000001,-0.030291080474853516,
7.3724999999999996,-0.033368270844221115,
7.375,-0.036709904670715332,
7.3775000000000004,-0.044066309928894043,
7.3799999999999999,-0.047768555581569672,
7.3825000000000003,-0.051014028489589691,
7.3849999999999998,-0.053394041955471039,
7.3875000000000002,-0.053946971893310547,
7.3899999999999997,-0.051639080047607422,
7.3925000000000001,-0.047624312341213226,
7.3949999999999996,-0.042239230126142502,
7.3975,-0.030243000015616417,
7.4000000000000004,-0.025555094704031944,
7.4024999999999999,-0.023319324478507042,
7.4050000000000002,-0.024593472480773926,
7.4074999999999998,-0.041061244904994965,
7.4100000000000001,-0.056976079940795898,
7.4124999999999996,-0.077650949358940125,
7.415,-0.10207613557577133,
7.4175000000000004,-0.15522977709770203,
7.4199999999999999,-0.17929434776306152,
7.4225000000000003,-0.19790172576904297,
7.4249999999999998,-0.20811896026134491,
7.4275000000000002,-0.19169926643371582,
7.4299999999999997,-0.16032636165618896,
7.4325000000000001,-0.11145194619894028,
7.4349999999999996,-0.04473944753408432,
7.4375,0.13736765086650848,
7.4400000000000004,0.2469203919172287,
7.4424999999999999,0.36267560720443726,
7.4450000000000003,0.47857505083084106,
7.4474999999999998,0.68349659442901611,
7.4500000000000002,0.75879156589508057,
7.4524999999999997,0.8080747127532959,
7.4550000000000001,0.82723498344421387,
7.4574999999999996,0.76941752433776855,
7.46,0.69558900594711304,
7.4625000000000004,0.59776806831359863,
7.4649999999999999,0.4828302264213562,
7.4675000000000002,0.23367404937744141,
7.4699999999999998,0.11561095714569092,
7.4725000000000001,0.011154810898005962,
7.4749999999999996,-0.07488628476858139,
7.4775,-0.18278023600578308,
7.4800000000000004,-0.20545046031475067,
7.4824999999999999,-0.21069130301475525,
7.4850000000000003,-0.20246943831443787,
7.4874999999999998,-0.16301891207695007,
7.4900000000000002,-0.13962745666503906,
7.4924999999999997,-0.11772652715444565,
7.4950000000000001,-0.098998948931694031,
7.4974999999999996,-0.073251530528068542,
7.5,-0.065510474145412445,
7.5025000000000004,-0.060029231011867523,
7.5049999999999999,-0.055894255638122559,
7.5075000000000003,-0.048778258264064789,
7.5099999999999998,-0.044979851692914963,
7.5125000000000002,-0.040965080261230469,
7.5149999999999997,-0.036878190934658051,
7.5175000000000001,-0.029353499412536621,
7.5199999999999996,-0.026252269744873047,
7.5225,-0.023631852120161057,
7.5250000000000004,-0.021444162353873253,
7.5274999999999999,-0.017693838104605675,
7.5300000000000002,-0.01584271714091301,
7.5324999999999998,-0.013823310844600201,
7.5350000000000001,-0.011659662239253521,
7.5374999999999996,-0.0069477162323892117,
7.54,-0.004519621841609478,
7.5425000000000004,-0.002091526985168457,
7.5449999999999999,0.000312527030473575,
7.5475000000000003,0.0052889189682900906,
7.5499999999999998,0.0080054998397827148,
7.5525000000000002,0.010890364646911621,
7.5549999999999997,0.013967554084956646,
7.5575000000000001,0.020194053649902344,
7.5599999999999996,0.023006796836853027,
7.5625,0.025338729843497276,
7.5650000000000004,0.027021568268537521,
7.5674999999999999,0.028199553489685059,
7.5700000000000003,0.027838945388793945,
7.5724999999999998,0.027117729187011719,
7.5750000000000002,0.026396512985229492,
7.5774999999999997,0.026132067665457726,
7.5800000000000001,0.027189850807189941,
7.5824999999999996,0.029209256172180176,
7.585,0.032238364219665527,
7.5875000000000004,0.040532350540161133,
7.5899999999999999,0.045268338173627853,
7.5925000000000002,0.049980282783508301,
7.5949999999999998,0.054427783936262131,
7.5975000000000001,0.061663985252380371,
7.5999999999999996,0.064428649842739105,
7.6025,0.06673654168844223,
7.6050000000000004,0.068779990077018738,
7.6074999999999999,0.073155365884304047,
7.6100000000000003,0.07596810907125473,
7.6124999999999998,0.07950206845998764,
7.6150000000000002,0.083853408694267273,
7.6174999999999997,0.095200538635253906,
7.6200000000000001,0.10205209255218506,
7.6224999999999996,0.10952870547771454,
7.625,0.11746208369731903,
7.6275000000000004,0.13378560543060303,
7.6299999999999999,0.14181515574455261,
7.6325000000000003,0.14950811862945557,
7.6349999999999998,0.1567443311214447,
7.6375000000000002,0.16963005065917969,
7.6399999999999997,0.17525553703308105,
7.6425000000000001,0.18037617206573486,
7.6449999999999996,0.18511216342449188,
7.6475,0.19374272227287292,
7.6500000000000004,0.19780556857585907,
7.6524999999999999,0.20174822211265564,
7.6550000000000002,0.20554661750793457,
