Data Set 1:Time(s),Data Set 1:EKG(mV),Data Set 1:Heart Rate(bpm)
0,0.0065871081314980984,104.34783172607422
0.0025000000000000001,-0.10128279775381088,
0.0050000000000000001,-0.19126653671264648,
0.0074999999999999997,-0.25985419750213623,
0.01,-0.30569952726364136,
0.012500000000000001,-0.32978814840316772,
0.014999999999999999,-0.32485982775688171,
0.017500000000000002,-0.30459365248680115,
0.02,-0.27877411246299744,
0.022499999999999999,-0.22634169459342957,
0.025000000000000001,-0.20516197383403778,
0.0275,-0.18907885253429413,
0.029999999999999999,-0.17806828022003174,
0.032500000000000001,-0.16792318224906921,
0.035000000000000003,-0.16631245613098145,
0.037499999999999999,-0.16544699668884277,
0.040000000000000001,-0.16443729400634766,
0.042500000000000003,-0.16039848327636719,
0.044999999999999998,-0.15739342570304871,
0.047500000000000001,-0.15407583117485046,
0.050000000000000003,-0.15080630779266357,
0.052499999999999998,-0.14544527232646942,
0.055,-0.14347395300865173,
0.057500000000000002,-0.14183919131755829,
0.059999999999999998,-0.14025251567363739,
0.0625,-0.13621370494365692,
0.065000000000000002,-0.13332884013652802,
0.067500000000000004,-0.12972275912761688,
0.070000000000000007,-0.12549161911010742,
0.072499999999999995,-0.11594752967357635,
0.074999999999999997,-0.11121153831481934,
0.077499999999999999,-0.10690828412771225,
0.080000000000000002,-0.10327816009521484,
0.082500000000000004,-0.09842197597026825,
0.085000000000000006,-0.097195908427238464,
0.087499999999999994,-0.096570849418640137,
0.089999999999999997,-0.096306405961513519,
0.092499999999999999,-0.09584963321685791,
0.095000000000000001,-0.095224581658840179,
0.097500000000000003,-0.09409467875957489,
0.10000000000000001,-0.092435881495475769,
0.10249999999999999,-0.08769989013671875,
0.105,-0.08486311137676239,
0.1075,-0.081906124949455261,
0.11,-0.076208516955375671,
0.1125,-0.073588095605373383,
0.115,-0.071087881922721863,
0.11749999999999999,-0.068611703813076019,
0.12,-0.063154503703117371,
0.1225,-0.059860944747924805,
0.125,-0.056062541902065277,
0.1275,-0.051639080047607422,
0.13,-0.04120548814535141,
0.13250000000000001,-0.035387676209211349,
0.13500000000000001,-0.029425621032714844,
0.13750000000000001,-0.023487608879804611,
0.14000000000000001,-0.012356838211417198,
0.14249999999999999,-0.0073323650285601616,
0.14499999999999999,-0.0026925406418740749,
0.14749999999999999,0.0016107162227854133,
0.14999999999999999,0.0097364187240600586,
0.1525,0.013799270614981651,
0.155,0.018054446205496788,
0.1575,0.022550027817487717,
0.16,0.032334528863430023,
0.16250000000000001,0.037503242492675781,
0.16500000000000001,0.042768120765686035,
0.16750000000000001,0.047960877418518066,
0.17000000000000001,0.057625174522399902,
0.17249999999999999,0.061904393136501312,
0.17499999999999999,0.065678760409355164,
0.17749999999999999,0.068948268890380859,
0.17999999999999999,0.073900625109672546,
0.1825,0.075583457946777344,
0.185,0.076761446893215179,
0.1875,0.077434584498405457,
0.19,0.077122054994106293,
0.1925,0.07601618766784668,
0.19500000000000001,0.074213147163391113,
0.19750000000000001,0.071640811860561371,
0.20000000000000001,0.063827633857727051,
0.20250000000000001,0.058490633964538574,
0.20499999999999999,0.052167974412441254,
0.20749999999999999,0.044883690774440765,
0.20999999999999999,0.027550458908081055,
0.21249999999999999,0.017669796943664551,
0.215,0.0071640810929238796,
0.2175,-0.0038224458694458008,
0.22,-0.026588838547468185,
0.2225,-0.037984054535627365,
0.22500000000000001,-0.049162905663251877,
0.22750000000000001,-0.059909027069807053,
0.23000000000000001,-0.079598233103752136,
0.23250000000000001,-0.088300906121730804,
0.23499999999999999,-0.096138119697570801,
0.23749999999999999,-0.1030377596616745,
0.23999999999999999,-0.11409640312194824,
0.24249999999999999,-0.11827945709228516,
0.245,-0.12169321626424789,
0.2475,-0.12443383783102036,
0.25,-0.12837648391723633,
0.2525,-0.12991508841514587,
0.255,-0.13135752081871033,
0.25750000000000001,-0.13282398879528046,
0.26000000000000001,-0.13635794818401337,
0.26250000000000001,-0.13854563236236572,
0.26500000000000001,-0.14104585349559784,
0.26750000000000002,-0.14383456110954285,
0.27000000000000002,-0.14681558310985565,
0.27250000000000002,-0.15296995639801025,
0.27500000000000002,-0.15583078563213348,
0.27750000000000002,-0.15837907791137695,
0.28000000000000003,-0.16184091567993164,
0.28249999999999997,-0.16258618235588074,
0.28499999999999998,-0.16258618235588074,
0.28749999999999998,-0.16191303730010986,
0.28999999999999998,-0.15881180763244629,
0.29249999999999998,-0.15669624507427216,
0.29499999999999998,-0.15443643927574158,
0.29749999999999999,-0.15220066905021667,
0.29999999999999999,-0.15018126368522644,
0.30249999999999999,-0.147055983543396,
0.30499999999999999,-0.1460222452878952,
0.3075,-0.14530102908611298,
0.31,-0.14448365569114685,
0.3125,-0.14419516921043396,
0.315,-0.14390668272972107,
0.3175,-0.14354607462882996,
0.32000000000000001,-0.14272868633270264,
0.32250000000000001,-0.14234404265880585,
0.32500000000000001,-0.14203152060508728,
0.32750000000000001,-0.14183919131755829,
0.33000000000000002,-0.14186322689056396,
0.33250000000000002,-0.14200747013092041,
0.33500000000000002,-0.14215171337127686,
0.33750000000000002,-0.14222383499145508,
0.34000000000000002,-0.1416468620300293,
0.34250000000000003,-0.14090161025524139,
0.34499999999999997,-0.13984382152557373,
0.34749999999999998,-0.13849756121635437,
0.34999999999999998,-0.1353001594543457,
0.35249999999999998,-0.13368944823741913,
0.35499999999999998,-0.13224701583385468,
0.35749999999999998,-0.13109306991100311,
0.35999999999999999,-0.12981891632080078,
0.36249999999999999,-0.12974679470062256,
0.36499999999999999,-0.12993912398815155,
0.36749999999999999,-0.13037185370922089,
0.37,-0.13140559196472168,
0.3725,-0.13181428611278534,
0.375,-0.13200661540031433,
0.3775,-0.13193449378013611,
0.38,-0.13090074062347412,
0.38250000000000001,-0.1299872100353241,
0.38500000000000001,-0.12885729968547821,
0.38750000000000001,-0.12758314609527588,
0.39000000000000001,-0.12508293986320496,
0.39250000000000002,-0.12402515113353729,
0.39500000000000002,-0.12313564866781235,
0.39750000000000002,-0.12243847548961639,
0.40000000000000002,-0.12157301604747772,
0.40250000000000002,-0.12126048654317856,
0.40500000000000003,-0.12087583541870117,
0.40749999999999997,-0.12037098407745361,
0.40999999999999998,-0.11876027286052704,
0.41249999999999998,-0.11763036251068115,
0.41499999999999998,-0.11635621637105942,
0.41749999999999998,-0.11503398418426514,
0.41999999999999998,-0.11272609233856201,
0.42249999999999999,-0.11193275451660156,
0.42499999999999999,-0.11147598922252655,
0.42749999999999999,-0.11135578155517578,
0.42999999999999999,-0.11186063289642334,
0.4325,-0.112269327044487,
0.435,-0.11260589212179184,
0.4375,-0.11272609233856201,
0.44,-0.11200487613677979,
0.4425,-0.11113941669464111,
0.44500000000000001,-0.1099373921751976,
0.44750000000000001,-0.10856708139181137,
0.45000000000000001,-0.10582645982503891,
0.45250000000000001,-0.10474463552236557,
0.45500000000000002,-0.10399937629699707,
0.45750000000000002,-0.1036868542432785,
0.46000000000000002,-0.10421574115753174,
0.46250000000000002,-0.10486483573913574,
0.46500000000000002,-0.10556201636791229,
0.46750000000000003,-0.10609090328216553,
0.46999999999999997,-0.10587453842163086,
0.47249999999999998,-0.10479271411895752,
0.47499999999999998,-0.10301371663808823,
0.47749999999999998,-0.10051350295543671,
0.47999999999999998,-0.093998514115810394,
0.48249999999999998,-0.090392433106899261,
0.48499999999999999,-0.086930595338344574,
0.48749999999999999,-0.083877444267272949,
0.48999999999999999,-0.079982876777648926,
0.49249999999999999,-0.079478025436401367,
0.495,-0.079982876777648926,
0.4975,-0.081473395228385925,
0.5,-0.086714230477809906,
0.50249999999999995,-0.089911624789237976,
0.505,-0.0930609330534935,
0.50749999999999995,-0.095777511596679688,
0.51000000000000001,-0.098518133163452148,
0.51249999999999996,-0.097941160202026367,
0.51500000000000001,-0.095825597643852234,
0.51749999999999996,-0.092099308967590332,
0.52000000000000002,-0.080391570925712585,
0.52249999999999996,-0.072963044047355652,
0.52500000000000002,-0.065053701400756836,
0.52749999999999997,-0.057192444801330566,
0.53000000000000003,-0.043633580207824707,
0.53249999999999997,-0.038801431655883789,
0.53500000000000003,-0.035748284310102463,
0.53749999999999998,-0.0345943383872509,
0.54000000000000004,-0.03783981129527092,
0.54249999999999998,-0.041902661323547363,
0.54500000000000004,-0.047167539596557617,
0.54749999999999999,-0.053321920335292816,
0.55000000000000004,-0.066688463091850281,
0.55249999999999999,-0.073275566101074219,
0.55500000000000005,-0.079453989863395691,
0.5575,-0.085031390190124512,
0.56000000000000005,-0.094046592712402344,
0.5625,-0.097508430480957031,
0.56499999999999995,-0.10034521669149399,
0.5675,-0.10267715156078339,
0.56999999999999995,-0.10613898932933807,
0.57250000000000001,-0.10741313546895981,
0.57499999999999996,-0.1083507165312767,
0.57750000000000001,-0.10885556787252426,
0.57999999999999996,-0.10808627307415009,
0.58250000000000002,-0.10654767602682114,
0.58499999999999996,-0.10421574115753174,
0.58750000000000002,-0.10128279775381088,
0.58999999999999997,-0.095272660255432129,
0.59250000000000003,-0.093589827418327332,
0.59499999999999997,-0.093950435519218445,
0.59750000000000003,-0.097268030047416687,
0.59999999999999998,-0.11582732200622559,
0.60250000000000004,-0.13169407844543457,
0.60499999999999998,-0.15157561004161835,
0.60750000000000004,-0.17446219921112061,
0.60999999999999999,-0.22218267619609833,
0.61250000000000004,-0.24220845103263855,
0.61499999999999999,-0.25579136610031128,
0.61750000000000005,-0.25992631912231445,
0.62,-0.22862553596496582,
0.62250000000000005,-0.18886248767375946,
0.625,-0.13145367801189423,
0.62749999999999995,-0.056687593460083008,
0.63,0.13746380805969238,
0.63249999999999995,0.24954080581665039,
0.63500000000000001,0.3645988404750824,
0.63749999999999996,0.47617098689079285,
0.64000000000000001,0.66077828407287598,
0.64249999999999996,0.7206152081489563,
0.64500000000000002,0.75172364711761475,
0.64749999999999996,0.75107455253601074,
0.65000000000000002,0.6538546085357666,
0.65249999999999997,0.5631256103515625,
0.65500000000000003,0.45193812251091003,
0.65749999999999997,0.32805722951889038,
0.66000000000000003,0.07596810907125473,
0.66249999999999998,-0.036325257271528244,
0.66500000000000004,-0.13109306991100311,
0.66749999999999998,-0.20453691482543945,
0.67000000000000004,-0.28343796730041504,
0.67249999999999999,-0.29211661219596863,
0.67500000000000004,-0.28497657179832458,
0.67749999999999999,-0.26660960912704468,
0.68000000000000005,-0.21441757678985596,
0.6825,-0.18821339309215546,
0.68500000000000005,-0.1653268039226532,
0.6875,-0.14698386192321777,
0.68999999999999995,-0.12400110810995102,
0.6925,-0.11784672737121582,
0.69499999999999995,-0.11383195966482162,
0.69750000000000001,-0.1108749732375145,
0.69999999999999996,-0.10517736524343491,
0.70250000000000001,-0.10178764909505844,
0.70499999999999996,-0.098037324845790863,
0.70750000000000002,-0.094190835952758789,
0.70999999999999996,-0.087435446679592133,
0.71250000000000002,-0.084983311593532562,
0.71499999999999997,-0.083300471305847168,
0.71750000000000003,-0.082242690026760101,
0.71999999999999997,-0.081257030367851257,
0.72250000000000003,-0.080728136003017426,
0.72499999999999998,-0.079790554940700531,
0.72750000000000004,-0.078227922320365906,
0.72999999999999998,-0.07277071475982666,
0.73250000000000004,-0.068948268890380859,
0.73499999999999999,-0.0646209716796875,
0.73750000000000004,-0.060029231011867523,
0.73999999999999999,-0.051206350326538086,
0.74250000000000005,-0.047504108399152756,
0.745,-0.044571161270141602,
0.74750000000000005,-0.042383473366498947,
0.75,-0.040099620819091797,
0.75249999999999995,-0.039546690881252289,
0.755,-0.03904183954000473,
0.75749999999999995,-0.038272541016340256,
0.76000000000000001,-0.035051107406616211,
0.76249999999999996,-0.032406650483608246,
0.76500000000000001,-0.029089054092764854,
0.76749999999999996,-0.025290649384260178,
0.77000000000000002,-0.017044743523001671,
0.77249999999999996,-0.013078054413199425,
0.77500000000000002,-0.0094719734042882919,
0.77749999999999997,-0.0063226623460650444,
0.78000000000000003,-0.0012981891632080078,
0.78249999999999997,0.00079333782196044922,
0.78500000000000003,0.0028367838822305202,
0.78749999999999998,0.0050004324875771999,
0.79000000000000004,0.010193189606070518,
0.79249999999999998,0.013366540893912315,
0.79500000000000004,0.016900500282645226,
0.79749999999999999,0.020771026611328125,
0.80000000000000004,0.029257338494062424,
0.80249999999999999,0.033801000565290451,
0.80500000000000005,0.038512945175170898,
0.8075,0.043417215347290039,
0.81000000000000005,0.053850810974836349,
0.8125,0.059404175728559494,
0.81499999999999995,0.065125823020935059,
0.8175,0.070967674255371094,
0.81999999999999995,0.082603298127651215,
0.82250000000000001,0.088156662881374359,
0.82499999999999996,0.09339749813079834,
0.82750000000000001,0.098277732729911804,
0.82999999999999996,0.1068602055311203,
0.83250000000000002,0.11063456535339355,
0.83499999999999996,0.11412044614553452,
0.83750000000000002,0.11736591905355453,
0.83999999999999997,0.12327989190816879,
0.84250000000000003,0.12592434883117676,
0.84499999999999997,0.12825629115104675,
0.84750000000000003,0.13020357489585876,
0.84999999999999998,0.13236722350120544,
0.85250000000000004,0.1323191374540329,
0.85499999999999998,0.131381556391716,
0.85750000000000004,0.12941023707389832,
0.85999999999999999,0.12217402458190918,
0.86250000000000004,0.11688511073589325,
0.86499999999999999,0.11049032211303711,
0.86750000000000005,0.1030377596616745,
0.87,0.085416041314601898,
0.87250000000000005,0.075511336326599121,
0.875,0.065101787447929382,
0.87749999999999995,0.054379701614379883,
0.88,0.032743215560913086,
0.88249999999999995,0.022189419716596603,
0.88500000000000001,0.011996230110526085,
0.88749999999999996,0.002283851383253932,
0.89000000000000001,-0.015458067879080772,
0.89249999999999996,-0.023415487259626389,
0.89500000000000002,-0.030795931816101074,
0.89749999999999996,-0.037599407136440277,
0.90000000000000002,-0.049595635384321213,
0.90249999999999997,-0.054836474359035492,
0.90500000000000003,-0.059596501290798187,
0.90749999999999997,-0.063923798501491547,
0.91000000000000003,-0.071376368403434753,
0.91249999999999998,-0.074573755264282227,
0.91500000000000004,-0.077530741691589355,
0.91749999999999998,-0.08024732768535614,
0.92000000000000004,-0.085223719477653503,
0.92249999999999999,-0.087531611323356628,
0.92500000000000004,-0.089695259928703308,
0.92749999999999999,-0.091714665293693542,
0.93000000000000005,-0.095056295394897461,
0.9325,-0.096282362937927246,
0.93500000000000005,-0.097099743783473969,
0.9375,-0.097532473504543304,
0.93999999999999995,-0.097075700759887695,
0.9425,-0.09625832736492157,
0.94499999999999995,-0.095152460038661957,
0.94750000000000001,-0.093806192278862,
0.94999999999999996,-0.090801119804382324,
0.95250000000000001,-0.089358687400817871,
0.95499999999999996,-0.088036462664604187,
0.95750000000000002,-0.086930595338344574,
0.95999999999999996,-0.085488162934780121,
0.96250000000000002,-0.085223719477653503,
0.96499999999999997,-0.08524775505065918,
0.96750000000000003,-0.085512205958366394,
0.96999999999999997,-0.086666151881217957,
0.97250000000000003,-0.087435446679592133,
0.97499999999999998,-0.088228784501552582,
0.97750000000000004,-0.088974043726921082,
0.97999999999999998,-0.090079903602600098,
0.98250000000000004,-0.090320311486721039,
0.98499999999999999,-0.090320311486721039,
0.98750000000000004,-0.090103946626186371,
0.98999999999999999,-0.089142322540283203,
0.99250000000000005,-0.088493227958679199,
0.995,-0.087868176400661469,
0.99750000000000005,-0.087267160415649414,
1,-0.08632957935333252,102.27272796630859
1.0024999999999999,-0.085968971252441406,
1.0049999999999999,-0.085608363151550293,
1.0075000000000001,-0.08519967645406723,
1.01,-0.084045730531215668,
1.0125,-0.083300471305847168,
1.0149999999999999,-0.08241097629070282,
1.0175000000000001,-0.081521473824977875,
1.02,-0.079910755157470703,
1.0225,-0.079381868243217468,
1.0249999999999999,-0.079141460359096527,
1.0275000000000001,-0.079141460359096527,
1.03,-0.079694390296936035,
1.0325,-0.080054998397827148,
1.0349999999999999,-0.08024732768535614,
1.0375000000000001,-0.080199241638183594,
1.04,-0.078997217118740082,
1.0425,-0.077819228172302246,
1.0449999999999999,-0.076352760195732117,
1.0475000000000001,-0.074717998504638672,
1.05,-0.071568690240383148,
1.0525,-0.070342622697353363,
1.0549999999999999,-0.069525241851806641,
1.0575000000000001,-0.069164633750915527,
1.0600000000000001,-0.069621406495571136,
1.0625,-0.070294544100761414,
1.0649999999999999,-0.071087881922721863,
1.0674999999999999,-0.071833133697509766,
1.0700000000000001,-0.072794757783412933,
1.0725,-0.072818800806999207,
1.075,-0.072530314326286316,
1.0774999999999999,-0.071881219744682312,
1.0800000000000001,-0.069885849952697754,
1.0825,-0.068659782409667969,
1.085,-0.067385636270046234,
1.0874999999999999,-0.066159568727016449,
1.0900000000000001,-0.064116120338439941,
1.0925,-0.063394904136657715,
1.095,-0.062914095818996429,
1.0974999999999999,-0.062721773982048035,
1.1000000000000001,-0.063106417655944824,
1.1025,-0.063635312020778656,
1.105,-0.064356528222560883,
1.1074999999999999,-0.065221987664699554,
1.1100000000000001,-0.067097149789333344,
1.1125,-0.068010687828063965,
1.115,-0.068804025650024414,
1.1174999999999999,-0.069429084658622742,
1.1200000000000001,-0.070006057620048523,
1.1225000000000001,-0.0699339359998703,
1.125,-0.069621406495571136,
1.1274999999999999,-0.069092512130737305,
1.1299999999999999,-0.067602001130580902,
1.1325000000000001,-0.066712498664855957,
1.135,-0.065774917602539062,
1.1375,-0.064837336540222168,
1.1399999999999999,-0.062841974198818207,
1.1425000000000001,-0.061736106872558594,
1.145,-0.060534082353115082,
1.1475,-0.059211850166320801,
1.1499999999999999,-0.056182742118835449,
1.1525000000000001,-0.054523944854736328,
1.155,-0.052841108292341232,
1.1575,-0.051182311028242111,
1.1599999999999999,-0.048129163682460785,
1.1625000000000001,-0.046782892197370529,
1.165,-0.045556824654340744,
1.1675,-0.044450961053371429,
1.1699999999999999,-0.04262387752532959,
1.1725000000000001,-0.041950743645429611,
1.175,-0.041493974626064301,
1.1775,-0.041590135544538498,
1.1799999999999999,-0.04228731244802475,
1.1825000000000001,-0.043489336967468262,
1.1850000000000001,-0.045172177255153656,
1.1875,-0.047167539596557617,
1.1899999999999999,-0.051278471946716309,
1.1924999999999999,-0.05276898667216301,
1.1950000000000001,-0.053442120552062988,
1.1975,-0.051158271729946136,
1.2,-0.047816634178161621,
1.2024999999999999,-0.043032567948102951,
1.2050000000000001,-0.036974351853132248,
1.2075,-0.02997855469584465,
1.21,-0.015169581398367882,
1.2124999999999999,-0.0084863109514117241,
1.2150000000000001,-0.0030291080474853516,
1.2175,0.0026444594841450453,
1.22,0.0024040541611611843,
1.2224999999999999,0.00016828379011712968,
1.2250000000000001,-0.0038705270271748304,
1.2275,-0.015650391578674316,
1.23,-0.022477906197309494,
1.2324999999999999,-0.029305418953299522,
1.2350000000000001,-0.035796366631984711,
1.2375,-0.046855013817548752,
1.24,-0.051326554268598557,
1.2424999999999999,-0.055173039436340332,
1.2450000000000001,-0.058562755584716797,
1.2475000000000001,-0.064524814486503601,
1.25,-0.067241393029689789,
1.2524999999999999,-0.069765649735927582,
1.2549999999999999,-0.071905255317687988,
1.2575000000000001,-0.07426123321056366,
1.26,-0.073996782302856445,
1.2625,-0.072554349899291992,
1.2649999999999999,-0.069885849952697754,
1.2675000000000001,-0.061880350112915039,
1.27,-0.057432852685451508,
1.2725,-0.053658485412597656,
1.2749999999999999,-0.051374636590480804,
1.2775000000000001,-0.054764352738857269,
1.28,-0.061880350112915039,
1.2825,-0.073155365884304047,
1.2849999999999999,-0.088541314005851746,
1.2875000000000001,-0.12921790778636932,
1.29,-0.15196025371551514,
1.2925,-0.17383715510368347,
1.2949999999999999,-0.19244453310966492,
1.2975000000000001,-0.20893633365631104,
1.3,-0.20129144191741943,
1.3025,-0.17967900633811951,
1.3049999999999999,-0.14224788546562195,
1.3075000000000001,-0.016852419823408127,
1.3100000000000001,0.069717571139335632,
1.3125,0.16898095607757568,
1.3149999999999999,0.27677875757217407,
1.3174999999999999,0.49516302347183228,
1.3200000000000001,0.5924069881439209,
1.3225,0.67251008749008179,
1.325,0.72926980257034302,
1.3274999999999999,0.75552207231521606,
1.3300000000000001,0.72143256664276123,
1.3325,0.65748476982116699,
1.335,0.5678856372833252,
1.3374999999999999,0.33791384100914001,
1.3400000000000001,0.21347999572753906,
1.3425,0.093637906014919281,
1.345,-0.014376243576407433,
1.3474999999999999,-0.17448624968528748,
1.3500000000000001,-0.22160570323467255,
1.3525,-0.2470165491104126,
1.355,-0.25329113006591797,
1.3574999999999999,-0.22449056804180145,
1.3600000000000001,-0.19864699244499207,
1.3625,-0.17097632586956024,
1.365,-0.14486829936504364,
1.3674999999999999,-0.10563413798809052,
1.3700000000000001,-0.093974471092224121,
1.3725000000000001,-0.087050795555114746,
1.375,-0.08378128707408905,
1.3774999999999999,-0.082795619964599609,
1.3799999999999999,-0.082651376724243164,
1.3825000000000001,-0.081569552421569824,
1.385,-0.07921358197927475,
1.3875,-0.070679187774658203,
1.3899999999999999,-0.065149866044521332,
1.3925000000000001,-0.059332054108381271,
1.395,-0.053682528436183929,
1.3975,-0.044186513870954514,
1.3999999999999999,-0.040628515183925629,
1.4025000000000001,-0.037911932915449142,
1.405,-0.035892527550458908,
1.4075,-0.03334423154592514,
1.4099999999999999,-0.032406650483608246,
1.4125000000000001,-0.031493108719587326,
1.415,-0.030483406037092209,
1.4175,-0.027814906090497971,
1.4199999999999999,-0.026132067665457726,
1.4225000000000001,-0.024232864379882812,
1.425,-0.022189419716596603,
1.4275,-0.01783808134496212,
1.4299999999999999,-0.015650391578674316,
1.4325000000000001,-0.013510784134268761,
1.4350000000000001,-0.011467337608337402,
1.4375,-0.0074766082689166069,
1.4399999999999999,-0.0054812431335449219,
1.4424999999999999,-0.0034137568436563015,
1.4450000000000001,-0.0012020270805805922,
1.4475,0.0036301217041909695,
1.45,0.0062505407258868217,
1.4524999999999999,0.0089671220630407333,
1.4550000000000001,0.011731783859431744,
1.4575,0.017140906304121017,
1.46,0.019761323928833008,
1.4624999999999999,0.022285580635070801,
1.4650000000000001,0.024785798043012619,
1.4675,0.030074715614318848,
1.47,0.033007662743330002,
1.4724999999999999,0.036253135651350021,
1.4750000000000001,0.039811134338378906,
1.4775,0.047936838120222092,
1.48,0.052408378571271896,
1.4824999999999999,0.057048201560974121,
1.4850000000000001,0.061784189194440842,
1.4875,0.071424447000026703,
1.49,0.076328717172145844,
1.4924999999999999,0.081305108964443207,
1.4950000000000001,0.086401700973510742,
1.4975000000000001,0.097051665186882019,
1.5,0.10250886529684067,
1.5024999999999999,0.10796606540679932,
1.5049999999999999,0.11325498670339584,
1.5075000000000001,0.12272696197032928,
1.51,0.12662152945995331,
1.5125,0.12984296679496765,
1.5149999999999999,0.1324152946472168,
1.5175000000000001,0.13599734008312225,
1.52,0.13734361529350281,
1.5225,0.13864180445671082,
1.5249999999999999,0.1400601863861084,
1.5275000000000001,0.14332970976829529,
1.53,0.14501254260540009,
1.5325,0.14643093943595886,
1.5349999999999999,0.14729639887809753,
1.5375000000000001,0.14595012366771698,
1.54,0.14316141605377197,
1.5425,0.13873796164989471,
1.5449999999999999,0.13263165950775146,
1.5475000000000001,0.1159956082701683,
1.55,0.1060187816619873,
1.5525,0.095368824899196625,
1.5549999999999999,0.084406338632106781,
1.5575000000000001,0.062745809555053711,
1.5600000000000001,0.052408378571271896,
1.5625,0.042479634284973145,
1.5649999999999999,0.033007662743330002,
1.5674999999999999,0.015025338158011436,
1.5700000000000001,0.0063947839662432671,
1.5725,-0.002043446060270071,
1.575,-0.01028935145586729,
1.5774999999999999,-0.025915702804923058,
1.5800000000000001,-0.033103823661804199,
1.5825,-0.039739012718200684,
1.585,-0.045749150216579437,
1.5874999999999999,-0.055774055421352386,
1.5900000000000001,-0.059884987771511078,
1.5925,-0.063467025756835938,
1.595,-0.066616341471672058,
1.5974999999999999,-0.07209758460521698,
1.6000000000000001,-0.07454971969127655,
1.6025,-0.076857611536979675,
1.605,-0.079021260142326355,
1.6074999999999999,-0.082819662988185883,
1.6100000000000001,-0.084430381655693054,
1.6125,-0.085848771035671234,
1.615,-0.087050795555114746,
1.6174999999999999,-0.088901922106742859,
1.6200000000000001,-0.089623138308525085,
1.6225000000000001,-0.090248189866542816,
1.625,-0.090753041207790375,
1.6274999999999999,-0.091522336006164551,
1.6299999999999999,-0.091738700866699219,
1.6325000000000001,-0.091834865510463715,
1.635,-0.091786786913871765,
1.6375,-0.091330014169216156,
1.6399999999999999,-0.09094536304473877,
1.6425000000000001,-0.090488597750663757,
1.645,-0.090007781982421875,
1.6475,-0.089094243943691254,
1.6499999999999999,-0.088757678866386414,
1.6525000000000001,-0.088565349578857422,
1.655,-0.088541314005851746,
1.6575,-0.089166365563869476,
1.6599999999999999,-0.089767381548881531,
1.6625000000000001,-0.090512633323669434,
1.665,-0.091330014169216156,
1.6675,-0.092820525169372559,
1.6699999999999999,-0.093253254890441895,
1.6725000000000001,-0.093421541154384613,
1.675,-0.093253254890441895,
1.6775,-0.091955065727233887,
1.6799999999999999,-0.091017484664916992,
1.6825000000000001,-0.090055868029594421,
1.6850000000000001,-0.08919040858745575,
1.6875,-0.088180705904960632,
1.6899999999999999,-0.08810858428478241,
1.6924999999999999,-0.088276863098144531,
1.6950000000000001,-0.088565349578857422,
1.6975,-0.088877879083156586,
1.7,-0.088589392602443695,
1.7024999999999999,-0.087868176400661469,
1.7050000000000001,-0.086666151881217957,
1.7075,-0.083180271089076996,
1.71,-0.081184908747673035,
1.7124999999999999,-0.079261660575866699,
1.7150000000000001,-0.077602863311767578,
1.7175,-0.075559422373771667,
1.72,-0.075174771249294281,
1.7224999999999999,-0.075150728225708008,
1.7250000000000001,-0.075319014489650726,
1.7275,-0.075559422373771667,
1.73,-0.075319014489650726,
1.7324999999999999,-0.074742041528224945,
1.7350000000000001,-0.0738525390625,
1.7375,-0.07135232537984848,
1.74,-0.070006057620048523,
1.7424999999999999,-0.068804025650024414,
1.7450000000000001,-0.067794322967529297,
1.7475000000000001,-0.066568255424499512,
1.75,-0.066279768943786621,
1.7524999999999999,-0.066063404083251953,
1.7549999999999999,-0.065847039222717285,
1.7575000000000001,-0.064933501183986664,
1.76,-0.064164206385612488,
1.7625,-0.063154503703117371,
1.7649999999999999,-0.062048636376857758,
1.7675000000000001,-0.059788823127746582,
1.77,-0.05892336368560791,
1.7725,-0.058370433747768402,
1.7749999999999999,-0.058202147483825684,
1.7775000000000001,-0.059043567627668381,
1.78,-0.059981148689985275,
1.7825,-0.061159133911132812,
1.7849999999999999,-0.062481366097927094,
1.7875000000000001,-0.065125823020935059,
1.79,-0.066255733370780945,
1.7925,-0.067169271409511566,
1.7949999999999999,-0.06781836599111557,
1.7975000000000001,-0.068323217332363129,
1.8,-0.068227052688598633,
1.8025,-0.067914530634880066,
1.8049999999999999,-0.067457757890224457,
1.8075000000000001,-0.066279768943786621,
1.8100000000000001,-0.06565471738576889,
1.8125,-0.065077744424343109,
1.8149999999999999,-0.064572893083095551,
1.8174999999999999,-0.063971877098083496,
1.8200000000000001,-0.063899755477905273,
1.8225,-0.063995920121669769,
1.825,-0.06423632800579071,
1.8274999999999999,-0.06502966582775116,
1.8300000000000001,-0.065486431121826172,
1.8325,-0.065895125269889832,
1.835,-0.066207647323608398,
1.8374999999999999,-0.066375933587551117,
1.8400000000000001,-0.066135525703430176,
1.8425,-0.065678760409355164,
1.845,-0.064981579780578613,
1.8474999999999999,-0.063058339059352875,
1.8500000000000001,-0.061880350112915039,
1.8525,-0.060630243271589279,
1.855,-0.059332054108381271,
1.8574999999999999,-0.056543350219726562,
1.8600000000000001,-0.05505283921957016,
1.8625,-0.053418081253767014,
1.865,-0.05168716236948967,
1.8674999999999999,-0.047864716500043869,
1.8700000000000001,-0.045941472053527832,
1.8725000000000001,-0.044138431549072266,
1.875,-0.042599838227033615,
1.8774999999999999,-0.041085284203290939,
1.8799999999999999,-0.041325688362121582,
1.8825000000000001,-0.042335391044616699,
1.885,-0.044018231332302094,
1.8875,-0.048826336860656738,
1.8899999999999999,-0.051422715187072754,
1.8925000000000001,-0.053682528436183929,
1.895,-0.055293243378400803,
1.8975,-0.055389404296875,
1.8999999999999999,-0.053538285195827484,
1.9025000000000001,-0.050413012504577637,
1.905,-0.046085715293884277,
1.9075,-0.035051107406616211,
1.9099999999999999,-0.029089054092764854,
1.9125000000000001,-0.023415487259626389,
1.915,-0.018415054306387901,
1.9175,-0.012020270340144634,
1.9199999999999999,-0.011106729507446289,
1.9225000000000001,-0.011827945709228516,
1.925,-0.014159878715872765,
1.9275,-0.022886594757437706,
1.9299999999999999,-0.028680365532636642,
1.9325000000000001,-0.034954946488142014,
1.9350000000000001,-0.041301649063825607,
1.9375,-0.053081512451171875,
1.9399999999999999,-0.058009825646877289,
1.9424999999999999,-0.06216883659362793,
1.9450000000000001,-0.065534517168998718,
1.9475,-0.07027050107717514,
1.95,-0.071905255317687988,
1.9524999999999999,-0.073251530528068542,
1.9550000000000001,-0.074381433427333832,
1.9575,-0.07596810907125473,
1.96,-0.076232552528381348,
1.9624999999999999,-0.075992152094841003,
1.9650000000000001,-0.075102649629116058,
1.9675,-0.071448490023612976,
1.97,-0.069116555154323578,
1.9724999999999999,-0.067049071192741394,
1.9750000000000001,-0.065871082246303558,
1.9775,-0.069405041635036469,
1.98,-0.075655579566955566,
1.9824999999999999,-0.085656449198722839,
1.9850000000000001,-0.099551878869533539,
1.9875,-0.13746380805969238,
1.99,-0.15938878059387207,
1.9924999999999999,-0.18102526664733887,
1.9950000000000001,-0.20011346042156219,
1.9975000000000001,-0.21992287039756775,
2,-0.21504263579845428,99.378883361816406
2.0024999999999999,-0.19686798751354218,
2.0049999999999999,-0.16325931251049042,
2.0074999999999998,-0.045604906976222992,
2.0099999999999998,0.037863850593566895,
2.0125000000000002,0.13517996668815613,
2.0150000000000001,0.24266521632671356,
2.0175000000000001,0.46689134836196899,
2.02,0.57060223817825317,
2.0225,0.65935993194580078,
2.0249999999999999,0.72655320167541504,
2.0274999999999999,0.77590847015380859,
2.0299999999999998,0.7526853084564209,
2.0325000000000002,0.69789689779281616,
2.0350000000000001,0.61495703458786011,
2.0375000000000001,0.38883170485496521,
2.04,0.26144087314605713,
2.0425,0.13580501079559326,
2.0449999999999999,0.01983344554901123,
2.0474999999999999,-0.15941283106803894,
2.0499999999999998,-0.21600425243377686,
2.0525000000000002,-0.2499014139175415,
2.0550000000000002,-0.25946956872940063,
2.0575000000000001,-0.24329027533531189,
2.0600000000000001,-0.21944205462932587,
2.0625,-0.19244453310966492,
2.0649999999999999,-0.16604802012443542,
2.0674999999999999,-0.12462615966796875,
2.0699999999999998,-0.11154811084270477,
2.0724999999999998,-0.10325412452220917,
2.0750000000000002,-0.096570849418640137,
2.0775000000000001,-0.09551306813955307,
2.0800000000000001,-0.094407200813293457,
2.0825,-0.092459917068481445,
2.085,-0.089286565780639648,
2.0874999999999999,-0.079285703599452972,
2.0899999999999999,-0.073083244264125824,
2.0924999999999998,-0.066664420068264008,
2.0950000000000002,-0.054812431335449219,
2.0975000000000001,-0.049932204186916351,
2.1000000000000001,-0.045917432755231857,
2.1025,-0.042816203087568283,
2.105,-0.038969717919826508,
2.1074999999999999,-0.038032136857509613,
2.1099999999999999,-0.037551324814558029,
2.1124999999999998,-0.037407081574201584,
2.1150000000000002,-0.037599407136440277,
2.1175000000000002,-0.037623446434736252,
2.1200000000000001,-0.037407081574201584,
2.1225000000000001,-0.036806069314479828,
2.125,-0.034041404724121094,
2.1274999999999999,-0.031805634498596191,
2.1299999999999999,-0.029040973633527756,
2.1324999999999998,-0.025867622345685959,
2.1349999999999998,-0.018943946808576584,
2.1375000000000002,-0.015554229728877544,
2.1400000000000001,-0.012428959831595421,
2.1425000000000001,-0.0096642971038818359,
2.145,-0.0053129596635699272,
2.1475,-0.0035820405464619398,
2.1499999999999999,-0.0019953649025410414,
2.1524999999999999,-0.00038464865065179765,
2.1549999999999998,0.0033897161483764648,
2.1575000000000002,0.0057456893846392632,
2.1600000000000001,0.0083901491016149521,
2.1625000000000001,0.011323094367980957,
2.165,0.017573636025190353,
2.1675,0.02074698731303215,
2.1699999999999999,0.023848216980695724,
2.1724999999999999,0.026853283867239952,
2.1749999999999998,0.032863419502973557,
2.1775000000000002,0.036060810089111328,
2.1800000000000002,0.039570730179548264,
2.1825000000000001,0.04353741928935051,
2.1850000000000001,0.053129594773054123,
2.1875,0.058851242065429688,
2.1899999999999999,0.065125823020935059,
2.1924999999999999,0.071857176721096039,
2.1949999999999998,0.086017057299613953,
2.1974999999999998,0.093109011650085449,
2.2000000000000002,0.099960565567016602,
2.2025000000000001,0.10645151138305664,
2.2050000000000001,0.11799097061157227,
2.2075,0.12296736240386963,
2.21,0.12743890285491943,
2.2124999999999999,0.13145367801189423,
2.2149999999999999,0.13842543959617615,
2.2174999999999998,0.14150261878967285,
2.2200000000000002,0.14433941245079041,
2.2225000000000001,0.14698386192321777,
2.2250000000000001,0.1515275239944458,
2.2275,0.15328249335289001,
2.23,0.15458068251609802,
2.2324999999999999,0.15530189871788025,
2.2349999999999999,0.1545085608959198,
2.2374999999999998,0.15280167758464813,
2.2400000000000002,0.15010914206504822,
2.2425000000000002,0.14638285338878632,
2.2450000000000001,0.13585309684276581,
2.2475000000000001,0.1291457861661911,
2.25,0.12154897302389145,
2.2524999999999999,0.11320690810680389,
2.2549999999999999,0.094647608697414398,
2.2574999999999998,0.084670782089233398,
2.2599999999999998,0.074381433427333832,
2.2625000000000002,0.063923798501491547,
2.2650000000000001,0.042960446327924728,
2.2675000000000001,0.032647054642438889,
2.27,0.022622149437665939,
2.2725,0.012957851402461529,
2.2749999999999999,-0.0051927566528320312,
2.2774999999999999,-0.013606945984065533,
2.2799999999999998,-0.021612446755170822,
2.2825000000000002,-0.029209256172180176,
2.2850000000000001,-0.043200850486755371,
2.2875000000000001,-0.049595635384321213,
2.29,-0.055485568940639496,
2.2925,-0.060822568833827972,
2.2949999999999999,-0.069453120231628418,
2.2974999999999999,-0.072650514543056488,
2.2999999999999998,-0.075054571032524109,
2.3025000000000002,-0.076761446893215179,
2.3050000000000002,-0.078492365777492523,
2.3075000000000001,-0.07887701690196991,
2.3100000000000001,-0.079237625002861023,
2.3125,-0.079742476344108582,
2.3149999999999999,-0.081617638468742371,
2.3174999999999999,-0.083036027848720551,
2.3199999999999998,-0.084718868136405945,
2.3224999999999998,-0.086497865617275238,
2.3250000000000002,-0.089695259928703308,
2.3275000000000001,-0.090825162827968597,
2.3300000000000001,-0.091450214385986328,
2.3325,-0.091594457626342773,
2.335,-0.090512633323669434,
2.3374999999999999,-0.089502930641174316,
2.3399999999999999,-0.088373027741909027,
2.3424999999999998,-0.087291203439235687,
2.3450000000000002,-0.085824728012084961,
2.3475000000000001,-0.085608363151550293,
2.3500000000000001,-0.085824728012084961,
2.3525,-0.086449787020683289,
2.355,-0.088685557246208191,
2.3574999999999999,-0.090127989649772644,
2.3599999999999999,-0.091618500649929047,
2.3624999999999998,-0.092988811433315277,
2.3650000000000002,-0.094863973557949066,
2.3675000000000002,-0.095128417015075684,
2.3700000000000001,-0.094815894961357117,
2.3725000000000001,-0.093974471092224121,
2.375,-0.09089728444814682,
2.3774999999999999,-0.088950000703334808,
2.3799999999999999,-0.08702675998210907,
2.3824999999999998,-0.085295841097831726,
2.3849999999999998,-0.083060070872306824,
2.3875000000000002,-0.082771584391593933,
2.3900000000000001,-0.082987949252128601,
2.3925000000000001,-0.083661079406738281,
2.395,-0.085560284554958344,
2.3975,-0.086401700973510742,
2.3999999999999999,-0.086930595338344574,
2.4024999999999999,-0.086978673934936523,
2.4049999999999998,-0.085584327578544617,
2.4075000000000002,-0.084238052368164062,
2.4100000000000001,-0.082603298127651215,
2.4125000000000001,-0.080848336219787598,
2.415,-0.077747106552124023,
2.4175,-0.076641246676445007,
2.4199999999999999,-0.075944066047668457,
2.4224999999999999,-0.07563154399394989,
2.4249999999999998,-0.075944066047668457,
2.4275000000000002,-0.076328717172145844,
2.4300000000000002,-0.07671336829662323,
2.4325000000000001,-0.076977811753749847,
2.4350000000000001,-0.076833568513393402,
2.4375,-0.076328717172145844,
2.4399999999999999,-0.075583457946777344,
2.4424999999999999,-0.074621841311454773,
2.4449999999999998,-0.072362028062343597,
2.4474999999999998,-0.071232125163078308,
2.4500000000000002,-0.070174336433410645,
2.4525000000000001,-0.069212719798088074,
2.4550000000000001,-0.067698165774345398,
2.4575,-0.067121192812919617,
2.46,-0.066664420068264008,
2.4624999999999999,-0.066279768943786621,
2.4649999999999999,-0.065750882029533386,
2.4674999999999998,-0.065606638789176941,
2.4700000000000002,-0.065534517168998718,
2.4725000000000001,-0.065534517168998718,
2.4750000000000001,-0.06565471738576889,
2.4775,-0.065678760409355164,
2.48,-0.065606638789176941,
2.4824999999999999,-0.065342187881469727,
2.4849999999999999,-0.064164206385612488,
2.4874999999999998,-0.063226625323295593,
2.4900000000000002,-0.062096714973449707,
2.4925000000000002,-0.060870647430419922,
2.4950000000000001,-0.058610837906599045,
2.4975000000000001,-0.057793460786342621,
2.5,-0.057312648743391037,
2.5024999999999999,-0.057168405503034592,
2.5049999999999999,-0.057745378464460373,
2.5074999999999998,-0.058274269104003906,
2.5099999999999998,-0.058803163468837738,
2.5125000000000002,-0.059211850166320801,
2.5150000000000001,-0.059524379670619965,
2.5175000000000001,-0.059428215026855469,
2.52,-0.059259932488203049,
2.5225,-0.059091649949550629,
2.5249999999999999,-0.059115689247846603,
2.5274999999999999,-0.059428215026855469,
2.5299999999999998,-0.059884987771511078,
2.5325000000000002,-0.060510039329528809,
2.5350000000000001,-0.061808228492736816,
2.5375000000000001,-0.062385201454162598,
2.54,-0.062841974198818207,
2.5425,-0.063226625323295593,
2.5449999999999999,-0.063899755477905273,
2.5474999999999999,-0.064308449625968933,
2.5499999999999998,-0.064789257943630219,
2.5525000000000002,-0.06531815230846405,
2.5550000000000002,-0.0661114901304245,
2.5575000000000001,-0.0661114901304245,
2.5600000000000001,-0.065606638789176941,
2.5625,-0.064500771462917328,
2.5649999999999999,-0.060245595872402191,
2.5674999999999999,-0.057168405503034592,
2.5699999999999998,-0.053706567734479904,
2.5724999999999998,-0.050076447427272797,
2.5750000000000002,-0.043321054428815842,
2.5775000000000001,-0.040652554482221603,
2.5800000000000001,-0.038657188415527344,
2.5825,-0.037431120872497559,
2.585,-0.037166677415370941,
2.5874999999999999,-0.037911932915449142,
2.5899999999999999,-0.039113961160182953,
2.5924999999999998,-0.040604472160339355,
2.5950000000000002,-0.043922066688537598,
2.5975000000000001,-0.045532785356044769,
2.6000000000000001,-0.046903096139431,
2.6025,-0.047912798821926117,
2.605,-0.048177242279052734,
2.6074999999999999,-0.047095417976379395,
2.6099999999999999,-0.044979851692914963,
2.6124999999999998,-0.041734378784894943,
2.6150000000000002,-0.031997960060834885,
2.6175000000000002,-0.025819540023803711,
2.6200000000000001,-0.019160311669111252,
2.6225000000000001,-0.012428959831595421,
2.625,-0.00057697296142578125,
2.6274999999999999,0.0036301217041909695,
2.6299999999999999,0.0061784191057085991,
2.6324999999999998,0.006875594612210989,
2.6349999999999998,0.0023800134658813477,
2.6375000000000002,-0.002524256706237793,
2.6400000000000001,-0.0088469190523028374,
2.6425000000000001,-0.016155242919921875,
2.645,-0.031877756118774414,
2.6475,-0.039426486939191818,
2.6499999999999999,-0.046229958534240723,
2.6524999999999999,-0.052071809768676758,
2.6549999999999998,-0.060365796089172363,
2.6575000000000002,-0.062890052795410156,
2.6600000000000001,-0.064500771462917328,
2.6625000000000001,-0.065438352525234222,
2.665,-0.066015325486660004,
2.6675,-0.065919160842895508,
2.6699999999999999,-0.065582595765590668,
2.6724999999999999,-0.064981579780578613,
2.6749999999999998,-0.062553487718105316,
2.6775000000000002,-0.060678325593471527,
2.6800000000000002,-0.058466594666242599,
2.6825000000000001,-0.05630294606089592,
2.6850000000000001,-0.054379701614379883,
2.6875,-0.056182742118835449,
2.6899999999999999,-0.060942769050598145,
2.6924999999999999,-0.069405041635036469,
2.6949999999999998,-0.09871046245098114,
2.6974999999999998,-0.11904875934123993,
2.7000000000000002,-0.14191131293773651,
2.7025000000000001,-0.16559123992919922,
2.7050000000000001,-0.20585915446281433,
2.7075,-0.21674951910972595,
2.71,-0.21744668483734131,
2.7124999999999999,-0.20508985221385956,
2.7149999999999999,-0.13255953788757324,
2.7174999999999998,-0.070102214813232422,
2.7200000000000002,0.0094960136339068413,
2.7225000000000001,0.10426382720470428,
2.7250000000000001,0.32466751337051392,
2.7275,0.43974956870079041,
2.73,0.54944658279418945,
2.7324999999999999,0.64671456813812256,
2.7349999999999999,0.77754318714141846,
2.7374999999999998,0.80067020654678345,
2.7400000000000002,0.79160690307617188,
2.7425000000000002,0.75018507242202759,
2.7450000000000001,0.58192533254623413,
2.7475000000000001,0.4663383960723877,
2.75,0.33990919589996338,
2.7524999999999999,0.21117210388183594,
2.7549999999999999,-0.021492242813110352,
2.7574999999999998,-0.11282225698232651,
2.7599999999999998,-0.18227538466453552,
2.7625000000000002,-0.22881786525249481,
2.7650000000000001,-0.2590368390083313,
2.7675000000000001,-0.24958889186382294,
2.77,-0.22977948188781738,
2.7725,-0.20432054996490479,
2.7749999999999999,-0.15215258300304413,
2.7774999999999999,-0.13094882667064667,
2.7799999999999998,-0.11479358375072479,
2.7825000000000002,-0.10380705446004868,
2.7850000000000001,-0.094262957572937012,
2.7875000000000001,-0.093277297914028168,
2.79,-0.093157097697257996,
2.7925,-0.092868611216545105,
2.7949999999999999,-0.08947889506816864,
2.7974999999999999,-0.085993014276027679,
2.7999999999999998,-0.081521473824977875,
2.8025000000000002,-0.076400838792324066,
2.8050000000000002,-0.06570279598236084,
2.8075000000000001,-0.060798525810241699,
2.8100000000000001,-0.056447189301252365,
2.8125,-0.052744947373867035,
2.8149999999999999,-0.04719158262014389,
2.8174999999999999,-0.045148134231567383,
2.8199999999999998,-0.04336913675069809,
2.8224999999999998,-0.041734378784894943,
2.8250000000000002,-0.038416784256696701,
2.8275000000000001,-0.03658970445394516,
2.8300000000000001,-0.034618377685546875,
2.8325,-0.032574933022260666,
2.835,-0.028464000672101974,
2.8374999999999999,-0.026564797386527061,
2.8399999999999999,-0.024881958961486816,
2.8424999999999998,-0.023439526557922363,
2.8450000000000002,-0.021107595413923264,
2.8475000000000001,-0.020049810409545898,
2.8500000000000001,-0.018871825188398361,
2.8525,-0.017477473244071007,
2.855,-0.013486742973327637,
2.8574999999999999,-0.010746121406555176,
2.8599999999999999,-0.0075487298890948296,
2.8624999999999998,-0.0039426488801836967,
2.8650000000000002,0.0039666891098022461,
2.8675000000000002,0.0079093379899859428,
2.8700000000000001,0.01168370246887207,
2.8725000000000001,0.015121500007808208,
2.875,0.020843148231506348,
2.8774999999999999,0.023175081238150597,
2.8799999999999999,0.025338729843497276,
2.8824999999999998,0.027478337287902832,
2.8849999999999998,0.032478772103786469,
2.8875000000000002,0.03567616268992424,
2.8900000000000001,0.039498608559370041,
2.8925000000000001,0.04399418830871582,
2.895,0.054788392037153244,
2.8975,0.060822568833827972,
2.8999999999999999,0.067049071192741394,
2.9024999999999999,0.073251530528068542,
2.9049999999999998,0.085103511810302734,
2.9075000000000002,0.090584754943847656,
2.9100000000000001,0.095825597643852234,
2.9125000000000001,0.1008981466293335,
2.915,0.11101921647787094,
2.9175,0.11633217334747314,
2.9199999999999999,0.12186150252819061,
2.9224999999999999,0.12763123214244843,
2.9249999999999998,0.1393149346113205,
2.9275000000000002,0.14489233493804932,
2.9300000000000002,0.14998893439769745,
2.9325000000000001,0.15436431765556335,
2.9350000000000001,0.16044656932353973,
2.9375,0.16200920939445496,
2.9399999999999999,0.16261021792888641,
2.9424999999999999,0.1623457670211792,
2.9449999999999998,0.15960514545440674,
2.9474999999999998,0.15739342570304871,
2.9500000000000002,0.15467683970928192,
2.9525000000000001,0.15150348842144012,
2.9550000000000001,0.14352202415466309,
2.9575,0.13856968283653259,
2.96,0.13284802436828613,
2.9624999999999999,0.12630900740623474,
2.9649999999999999,0.11056244373321533,
2.9674999999999998,0.10142704099416733,
2.9700000000000002,0.091546379029750824,
2.9725000000000001,0.081088744103908539,
2.9750000000000001,0.059043567627668381,
2.9775,0.047816634178161621,
2.98,0.036685865372419357,
2.9824999999999999,0.025843581184744835,
2.9849999999999999,0.0055052838288247585,
2.9874999999999998,-0.0038224458694458008,
2.9900000000000002,-0.012501081451773643,
2.9925000000000002,-0.020530622452497482,
2.9950000000000001,-0.03476262092590332,
2.9975000000000001,-0.041013162583112717,
3,-0.046806931495666504,95.23809814453125
3.0024999999999999,-0.05214393138885498,
3.0049999999999999,-0.061639945954084396,
3.0074999999999998,-0.065871082246303558,
3.0099999999999998,-0.069717571139335632,
3.0125000000000002,-0.073251530528068542,
3.0150000000000001,-0.079285703599452972,
3.0175000000000001,-0.081785917282104492,
3.02,-0.083925530314445496,
3.0225,-0.085728570818901062,
3.0249999999999999,-0.088156662881374359,
3.0274999999999999,-0.08878171443939209,
3.0299999999999998,-0.088974043726921082,
3.0325000000000002,-0.088709592819213867,
3.0350000000000001,-0.087074838578701019,
3.0375000000000001,-0.085800692439079285,
3.04,-0.084406338632106781,
3.0425,-0.082963906228542328,
3.0449999999999999,-0.08058389276266098,
3.0474999999999999,-0.079862676560878754,
3.0499999999999998,-0.079526111483573914,
3.0525000000000002,-0.079574190080165863,
3.0550000000000002,-0.080607935786247253,
3.0575000000000001,-0.081353187561035156,
3.0600000000000001,-0.082098446786403656,
3.0625,-0.08269946277141571,
3.0649999999999999,-0.083204314112663269,
3.0674999999999999,-0.083036027848720551,
3.0699999999999998,-0.082651376724243164,
3.0724999999999998,-0.082146525382995605,
3.0750000000000002,-0.081232987344264984,
3.0775000000000001,-0.081040665507316589,
3.0800000000000001,-0.081136822700500488,
3.0825,-0.081569552421569824,
3.085,-0.083204314112663269,
3.0874999999999999,-0.084262095391750336,
3.0899999999999999,-0.085319876670837402,
3.0924999999999998,-0.08628150075674057,
3.0950000000000002,-0.087555646896362305,
3.0975000000000001,-0.087796054780483246,
3.1000000000000001,-0.087772011756896973,
3.1025,-0.087531611323356628,
3.105,-0.086594030261039734,
3.1074999999999999,-0.085993014276027679,
3.1099999999999999,-0.085295841097831726,
3.1124999999999998,-0.084526538848876953,
3.1150000000000002,-0.082651376724243164,
3.1175000000000002,-0.081497430801391602,
3.1200000000000001,-0.080199241638183594,
3.1225000000000001,-0.078780852258205414,
3.125,-0.075920030474662781,
3.1274999999999999,-0.074645876884460449,
3.1299999999999999,-0.073636174201965332,
3.1324999999999998,-0.07248222827911377,
3.1349999999999998,-0.072289906442165375,
3.1375000000000002,-0.072265863418579102,
3.1400000000000001,-0.072241827845573425,
3.1425000000000001,-0.072073541581630707,
3.145,-0.07060706615447998,
3.1475,-0.069164633750915527,
3.1499999999999999,-0.067241393029689789,
3.1524999999999999,-0.064981579780578613,
3.1549999999999998,-0.060197513550519943,
3.1575000000000002,-0.058081947267055511,
3.1600000000000001,-0.05647122859954834,
3.1625000000000001,-0.055461525917053223,
3.165,-0.055317282676696777,
3.1675,-0.055990420281887054,
3.1699999999999999,-0.056903958320617676,
3.1724999999999999,-0.058610837906599045,
3.1749999999999998,-0.058995485305786133,
3.1775000000000002,-0.05892336368560791,
3.1800000000000002,-0.058346390724182129,
3.1825000000000001,-0.056062541902065277,
3.1850000000000001,-0.054668188095092773,
3.1875,-0.053345959633588791,
3.1899999999999999,-0.052288174629211426,
3.1924999999999999,-0.051374636590480804,
3.1949999999999998,-0.051566958427429199,
3.1974999999999998,-0.052167974412441254,
3.2000000000000002,-0.053009390830993652,
3.2025000000000001,-0.054956674575805664,
3.2050000000000001,-0.055774055421352386,
3.2075,-0.056326985359191895,
3.21,-0.056567393243312836,
3.2124999999999999,-0.056062541902065277,
3.2149999999999999,-0.055389404296875,
3.2174999999999998,-0.054499905556440353,
3.2200000000000002,-0.053538285195827484,
3.2225000000000001,-0.051711201667785645,
3.2250000000000001,-0.051014028489589691,
3.2275,-0.050581298768520355,
3.23,-0.050413012504577637,
3.2324999999999999,-0.051014028489589691,
3.2349999999999999,-0.05168716236948967,
3.2374999999999998,-0.052504539489746094,
3.2400000000000002,-0.053345959633588791,
3.2425000000000002,-0.054499905556440353,
3.2450000000000001,-0.054547987878322601,
3.2475000000000001,-0.054091215133666992,
3.25,-0.053153634071350098,
3.2524999999999999,-0.049884121865034103,
3.2549999999999999,-0.047864716500043869,
3.2574999999999998,-0.045869350433349609,
3.2599999999999998,-0.044138431549072266,
3.2625000000000002,-0.042167108505964279,
3.2650000000000001,-0.042167108505964279,
3.2675000000000001,-0.042768120765686035,
3.27,-0.043873988091945648,
3.2725,-0.046686731278896332,
3.2749999999999999,-0.047888755798339844,
3.2774999999999999,-0.048634015023708344,
3.2799999999999998,-0.048778258264064789,
3.2825000000000002,-0.047095417976379395,
3.2850000000000001,-0.045436620712280273,
3.2875000000000001,-0.043489336967468262,
3.29,-0.041421853005886078,
3.2925,-0.03783981129527092,
3.2949999999999999,-0.036613743752241135,
3.2974999999999999,-0.035820405930280685,
3.2999999999999998,-0.035459797829389572,
3.3025000000000002,-0.035700201988220215,
3.3050000000000002,-0.036084853112697601,
3.3075000000000001,-0.036517582833766937,
3.3100000000000001,-0.036902230232954025,
3.3125,-0.037310920655727386,
3.3149999999999999,-0.037238799035549164,
3.3174999999999999,-0.036950312554836273,
3.3199999999999998,-0.036301217973232269,
3.3224999999999998,-0.03351251408457756,
3.3250000000000002,-0.03106037899851799,
3.3275000000000001,-0.027766823768615723,
3.3300000000000001,-0.023559730499982834,
3.3325,-0.012693405151367188,
3.335,-0.0064669055864214897,
3.3374999999999999,-0.00019232432532589883,
3.3399999999999999,0.0056976079940795898,
3.3424999999999998,0.014496445655822754,
3.3450000000000002,0.016660094261169434,
3.3475000000000001,0.017020702362060547,
3.3500000000000001,0.015554229728877544,
3.3525,0.0078372163698077202,
3.355,0.0022357702255249023,
3.3574999999999999,-0.0039426488801836967,
3.3599999999999999,-0.010337432846426964,
3.3624999999999998,-0.022333662956953049,
3.3650000000000002,-0.027574500069022179,
3.3675000000000002,-0.032190285623073578,
3.3700000000000001,-0.036277174949645996,
3.3725000000000001,-0.043176811188459396,
3.375,-0.046181879937648773,
3.3774999999999999,-0.048970580101013184,
3.3799999999999999,-0.051494836807250977,
3.3824999999999998,-0.055293243378400803,
3.3849999999999998,-0.056254863739013672,
3.3875000000000002,-0.056351028382778168,
3.3900000000000001,-0.055485568940639496,
3.3925000000000001,-0.05077362060546875,
3.395,-0.047263704240322113,
3.3975,-0.043441258370876312,
3.3999999999999999,-0.039835177361965179,
3.4024999999999999,-0.036084853112697601,
3.4049999999999998,-0.037455163896083832,
3.4075000000000002,-0.041974782943725586,
3.4100000000000001,-0.050148569047451019,
3.4125000000000001,-0.078276000916957855,
3.415,-0.097604595124721527,
3.4175,-0.11919300258159637,
3.4199999999999999,-0.14152666926383972,
3.4224999999999999,-0.17977516353130341,
3.4249999999999998,-0.19047319889068604,
3.4275000000000002,-0.19174735248088837,
3.4300000000000002,-0.18085698783397675,
3.4325000000000001,-0.11347135156393051,
3.4350000000000001,-0.054355662316083908,
3.4375,0.021756689995527267,
3.4399999999999999,0.11320690810680389,
3.4424999999999999,0.32836973667144775,
3.4449999999999998,0.44186514616012573,
3.4474999999999998,0.5507206916809082,
3.4500000000000002,0.64784449338912964,
3.4525000000000001,0.77999532222747803,
3.4550000000000001,0.80422818660736084,
3.4575,0.79636693000793457,
3.46,0.75617116689682007,
3.4624999999999999,0.590171217918396,
3.4649999999999999,0.47571420669555664,
3.4674999999999998,0.35051107406616211,
3.4700000000000002,0.22319237887859344,
3.4725000000000001,-0.0056976079940795898,
3.4750000000000001,-0.094575487077236176,
3.4775,-0.16128799319267273,
3.48,-0.20487348735332489,
3.4824999999999999,-0.22939483821392059,
3.4849999999999999,-0.21766304969787598,
3.4874999999999998,-0.19626697897911072,
3.4900000000000002,-0.17006278038024902,
3.4925000000000002,-0.11912088096141815,
3.4950000000000001,-0.099744200706481934,
3.4975000000000001,-0.08594493567943573,
3.5,-0.077578827738761902,
3.5024999999999999,-0.072674557566642761,
3.5049999999999999,-0.073155365884304047,
3.5074999999999998,-0.073708295822143555,
3.5099999999999998,-0.073251530528068542,
3.5125000000000002,-0.067337557673454285,
3.5150000000000001,-0.061976514756679535,
3.5175000000000001,-0.055557690560817719,
3.52,-0.048706136643886566,
3.5225,-0.042022865265607834,
3.5249999999999999,-0.030988257378339767,
3.5274999999999999,-0.027093689888715744,
3.5299999999999998,-0.02428094670176506,
3.5325000000000002,-0.02108355425298214,
3.5350000000000001,-0.020145973190665245,
3.5375000000000001,-0.019280513748526573,
3.54,-0.01829485222697258,
3.5425,-0.015458067879080772,
3.5449999999999999,-0.013558864593505859,
3.5474999999999999,-0.01139521598815918,
3.5499999999999998,-0.009039243683218956,
3.5525000000000002,-0.0041109323501586914,
3.5550000000000002,-0.0016587972640991211,
3.5575000000000001,0.00072121620178222656,
3.5600000000000001,0.0030531487427651882,
3.5625,0.0075487298890948296,
3.5649999999999999,0.0097364187240600586,
3.5674999999999999,0.011876027099788189,
3.5699999999999998,0.013991594314575195,
3.5724999999999998,0.018078487366437912,
3.5750000000000002,0.020049810409545898,
3.5775000000000001,0.02199709415435791,
3.5800000000000001,0.023944377899169922,
3.5825,0.027983188629150391,
3.585,0.030194919556379318,
3.5874999999999999,0.032574933022260666,
3.5899999999999999,0.035171311348676682,
3.5924999999999998,0.041061244904994965,
3.5950000000000002,0.044330757111310959,
3.5975000000000001,0.047816634178161621,
3.6000000000000001,0.051422715187072754,
3.6025,0.058971446007490158,
3.605,0.06286601722240448,
3.6074999999999999,0.066880784928798676,
3.6099999999999999,0.071039795875549316,
3.6124999999999998,0.079910755157470703,
3.6150000000000002,0.084718868136405945,
3.6175000000000002,0.089743338525295258,
3.6200000000000001,0.095056295394897461,
3.6225000000000001,0.10623514652252197,
3.625,0.11200487613677979,
3.6274999999999999,0.11782269179821014,
3.6299999999999999,0.12361645698547363,
3.6324999999999998,0.13486742973327637,
3.6349999999999998,0.14025251567363739,
3.6375000000000002,0.1453731507062912,
3.6400000000000001,0.15020529925823212,
3.6425000000000001,0.15871565043926239,
3.645,0.16232173144817352,
3.6475,0.1654229611158371,
3.6499999999999999,0.16801933944225311,
3.6524999999999999,0.17169754207134247,
3.6549999999999998,0.17287552356719971,
3.6575000000000002,0.17366886138916016,
3.6600000000000001,0.17414967715740204,
3.6625000000000001,0.17424583435058594,
3.665,0.17386119067668915,
3.6675,0.1730678528547287,
3.6699999999999999,0.17174562811851501,
3.6724999999999999,0.16686539351940155,
3.6749999999999998,0.1629948616027832,
3.6775000000000002,0.15797039866447449,
3.6800000000000002,0.15171985328197479,
3.6825000000000001,0.13561269640922546,
3.6850000000000001,0.12594839930534363,
3.6875,0.11546671390533447,
3.6899999999999999,0.10438402742147446,
3.6924999999999999,0.081449352204799652,
3.6949999999999998,0.070030093193054199,
3.6974999999999998,0.058899324387311935,
3.7000000000000002,0.04815320298075676,
3.7025000000000001,0.028103392571210861,
3.7050000000000001,0.018823742866516113,
3.7075,0.010048946365714073,
3.71,0.0017790000420063734,
3.7124999999999999,-0.013054013252258301,
3.7149999999999999,-0.01954495906829834,
3.7174999999999998,-0.025338729843497276,
3.7200000000000002,-0.030411284416913986,
3.7225000000000001,-0.038320623338222504,
3.7250000000000001,-0.041277609765529633,
3.7275,-0.04370570182800293,
3.73,-0.045701067894697189,
3.7324999999999999,-0.049066744744777679,
3.7349999999999999,-0.050653420388698578,
3.7374999999999998,-0.052264135330915451,
3.7400000000000002,-0.053946971893310547,
3.7425000000000002,-0.057192444801330566,
3.7450000000000001,-0.058610837906599045,
3.7475000000000001,-0.059740744531154633,
3.75,-0.060558121651411057,
3.7524999999999999,-0.061111055314540863,
3.7549999999999999,-0.060942769050598145,
3.7574999999999998,-0.060606203973293304,
3.7599999999999998,-0.060245595872402191,
3.7625000000000002,-0.059884987771511078,
3.7650000000000001,-0.060053270310163498,
3.7675000000000001,-0.060461960732936859,
3.77,-0.061111055314540863,
3.7725,-0.06286601722240448,
3.7749999999999999,-0.063827633857727051,
3.7774999999999999,-0.064765214920043945,
3.7799999999999998,-0.065606638789176941,
3.7825000000000002,-0.066880784928798676,
3.7850000000000001,-0.067265436053276062,
3.7875000000000001,-0.06748180091381073,
3.79,-0.067505836486816406,
3.7925,-0.066976949572563171,
3.7949999999999999,-0.06639997661113739,
3.7974999999999999,-0.065678760409355164,
3.7999999999999998,-0.064861379563808441,
3.8025000000000002,-0.063154503703117371,
3.8050000000000002,-0.06245732307434082,
3.8075000000000001,-0.061904393136501312,
3.8100000000000001,-0.061591863632202148,
3.8125,-0.061495702713727951,
3.8149999999999999,-0.061639945954084396,
3.8174999999999999,-0.061784189194440842,
3.8199999999999998,-0.061880350112915039,
3.8224999999999998,-0.061591863632202148,
3.8250000000000002,-0.061183176934719086,
3.8275000000000001,-0.060630243271589279,
3.8300000000000001,-0.059957109391689301,
3.8325,-0.058490633964538574,
3.835,-0.057769417762756348,
3.8374999999999999,-0.057096283882856369,
3.8399999999999999,-0.05642315000295639,
3.8424999999999998,-0.054980717599391937,
3.8450000000000002,-0.054115258157253265,
3.8475000000000001,-0.053129594773054123,
3.8500000000000001,-0.052071809768676758,
3.8525,-0.049812000244855881,
3.855,-0.048778258264064789,
3.8574999999999999,-0.047888755798339844,
3.8599999999999999,-0.047167539596557617,
3.8624999999999998,-0.046229958534240723,
3.8650000000000002,-0.045869350433349609,
3.8675000000000002,-0.045460663735866547,
3.8700000000000001,-0.044835608452558517,
3.8725000000000001,-0.042695999145507812,
3.875,-0.041109323501586914,
3.8774999999999999,-0.039258204400539398,
3.8799999999999999,-0.037238799035549164,
3.8824999999999998,-0.033368270844221115,
3.8849999999999998,-0.031853716820478439,
3.8875000000000002,-0.030819972977042198,
3.8900000000000001,-0.03031512163579464,
3.8925000000000001,-0.030964216217398643,
3.895,-0.031949877738952637,
3.8975,-0.033175945281982422,
3.8999999999999999,-0.034498177468776703,
3.9024999999999999,-0.036854147911071777,
3.9049999999999998,-0.037695568054914474,
3.9075000000000002,-0.03829658031463623,
3.9100000000000001,-0.038633149117231369,
3.9125000000000001,-0.038849513977766037,
3.915,-0.038873553276062012,
3.9175,-0.038945674896240234,
3.9199999999999999,-0.039113961160182953,
3.9224999999999999,-0.039690934121608734,
3.9249999999999998,-0.040051542222499847,
3.9275000000000002,-0.040340028703212738,
3.9300000000000002,-0.040532350540161133,
3.9325000000000001,-0.040315985679626465,
3.9350000000000001,-0.039859216660261154,
3.9375,-0.039186082780361176,
3.9399999999999999,-0.038320623338222504,
3.9424999999999999,-0.036253135651350021,
3.9449999999999998,-0.035171311348676682,
3.9474999999999998,-0.034113526344299316,
3.9500000000000002,-0.033127866685390472,
3.9525000000000001,-0.031276743859052658,
3.9550000000000001,-0.030363202095031738,
3.9575,-0.029425621032714844,
3.96,-0.028439959511160851,
3.9624999999999999,-0.026228230446577072,
3.9649999999999999,-0.02507428452372551,
3.9674999999999998,-0.023920338600873947,
3.9700000000000002,-0.022838514298200607,
3.9725000000000001,-0.021107595413923264,
3.9750000000000001,-0.020578702911734581,
3.9775,-0.020266175270080566,
3.98,-0.020194053649902344,
3.9824999999999999,-0.02062678337097168,
3.9849999999999999,-0.021011432632803917,
3.9874999999999998,-0.021396081894636154,
3.9900000000000002,-0.021732648834586143,
3.9925000000000002,-0.021804770454764366,
3.9950000000000001,-0.02137204073369503,
3.9975000000000001,-0.020506581291556358,
4,-0.019160311669111252,91.954025268554688
4.0025000000000004,-0.014688770286738873,
4.0049999999999999,-0.011515418998897076,
4.0075000000000003,-0.0077891349792480469,
4.0099999999999998,-0.0035820405464619398,
4.0125000000000002,0.0056495270691812038,
4.0149999999999997,0.010169148445129395,
4.0175000000000001,0.01430412195622921,
4.0199999999999996,0.020218094810843468,
4.0225,0.021492242813110352,
4.0250000000000004,0.021468203514814377,
4.0274999999999999,0.0200017299503088,
4.0300000000000002,0.013126134872436523,
4.0324999999999998,0.0079814596101641655,
4.0350000000000001,0.0020194053649902344,
4.0374999999999996,-0.0044475002214312553,
4.04,-0.017790000885725021,
4.0425000000000004,-0.024136703461408615,
4.0449999999999999,-0.030050676316022873,
4.0475000000000003,-0.035387676209211349,
4.0499999999999998,-0.044138431549072266,
4.0525000000000002,-0.047576230019330978,
4.0549999999999997,-0.05043705552816391,
4.0575000000000001,-0.052696865051984787,
4.0599999999999996,-0.055245161056518555,
4.0625,-0.055341325700283051,
4.0650000000000004,-0.054499905556440353,
4.0674999999999999,-0.052624743431806564,
4.0700000000000003,-0.045965515077114105,
4.0724999999999998,-0.041638217866420746,
4.0750000000000002,-0.037262838333845139,
4.0774999999999997,-0.033560596406459808,
4.0800000000000001,-0.031613312661647797,
4.0824999999999996,-0.035195350646972656,
4.085,-0.04274408146739006,
4.0875000000000004,-0.054644148796796799,
4.0899999999999999,-0.070871517062187195,
4.0925000000000002,-0.11327902972698212,
4.0949999999999998,-0.13662239909172058,
4.0975000000000001,-0.15866756439208984,
4.0999999999999996,-0.18830955028533936,
4.1025,-0.19025683403015137,
4.1050000000000004,-0.17999152839183807,
4.1074999999999999,-0.15527784824371338,
4.1100000000000003,-0.056855879724025726,
4.1124999999999998,0.01721302792429924,
4.1150000000000002,0.10609090328216553,
4.1174999999999997,0.20684480667114258,
4.1200000000000001,0.42556565999984741,
4.1224999999999996,0.53175270557403564,
4.125,0.62690520286560059,
4.1275000000000004,0.70426762104034424,
4.1299999999999999,0.7830965518951416,
4.1325000000000003,0.77706241607666016,
4.1349999999999998,0.73924660682678223,
4.1375000000000002,0.67162060737609863,
4.1399999999999997,0.46609801054000854,
4.1425000000000001,0.34233731031417847,
4.1449999999999996,0.21559557318687439,
4.1475,0.094190835952758789,
4.1500000000000004,-0.10491292178630829,
4.1524999999999999,-0.17338037490844727,
4.1550000000000002,-0.21869680285453796,
4.1574999999999998,-0.24177572131156921,
4.1600000000000001,-0.23405870795249939,
4.1624999999999996,-0.21225392818450928,
4.165,-0.18499195575714111,
4.1675000000000004,-0.15664815902709961,
4.1699999999999999,-0.10916809737682343,
4.1725000000000003,-0.093253254890441895,
4.1749999999999998,-0.082843706011772156,
4.1775000000000002,-0.077073976397514343,
4.1799999999999997,-0.0738525390625,
4.1825000000000001,-0.073491930961608887,
4.1849999999999996,-0.07248222827911377,
4.1875,-0.070174336433410645,
4.1900000000000004,-0.061327420175075531,
4.1924999999999999,-0.055389404296875,
4.1950000000000003,-0.049162905663251877,
4.1974999999999998,-0.043200850486755371,
4.2000000000000002,-0.033728878945112228,
4.2024999999999997,-0.030675729736685753,
4.2050000000000001,-0.028680365532636642,
4.2074999999999996,-0.027646621689200401,
4.21,-0.027261972427368164,
4.2125000000000004,-0.027310054749250412,
4.2149999999999999,-0.027189850807189941,
4.2175000000000002,-0.026709040626883507,
4.2199999999999998,-0.024208825081586838,
4.2225000000000001,-0.022189419716596603,
4.2249999999999996,-0.019761323928833008,
4.2275,-0.017020702362060547,
4.2300000000000004,-0.014159878715872765,
4.2324999999999999,-0.0086545944213867188,
4.2350000000000003,-0.0062745809555053711,
4.2374999999999998,-0.0042311353608965874,
4.2400000000000002,-0.0010818243026733398,
4.2424999999999997,0.00019232432532589883,
4.2450000000000001,0.0014424324035644531,
4.2474999999999996,0.0028608243446797132,
4.25,0.006611148826777935,
4.2525000000000004,0.0091113653033971786,
4.2549999999999999,0.012020270340144634,
4.2575000000000003,0.015265743248164654,
4.2599999999999998,0.022309621796011925,
4.2625000000000002,0.025843581184744835,
4.2649999999999997,0.029209256172180176,
4.2675000000000001,0.032358568161725998,
4.2699999999999996,0.03800809383392334,
4.2725,0.040628515183925629,
4.2750000000000004,0.043224893510341644,
4.2774999999999999,0.045917432755231857,
4.2800000000000002,0.052023731172084808,
4.2824999999999998,0.055557690560817719,
4.2850000000000001,0.059452258050441742,
4.2874999999999996,0.063683390617370605,
4.29,0.073155365884304047,
4.2925000000000004,0.078324079513549805,
4.2949999999999999,0.083709165453910828,
4.2975000000000003,0.089334651827812195,
4.2999999999999998,0.10118663311004639,
4.3025000000000002,0.10734101384878159,
4.3049999999999997,0.11359155178070068,
4.3075000000000001,0.11986613273620605,
4.3099999999999996,0.13205468654632568,
4.3125,0.1377282589673996,
4.3150000000000004,0.1429450511932373,
4.3174999999999999,0.14763295650482178,
4.3200000000000003,0.15513360500335693,
4.3224999999999998,0.15797039866447449,
4.3250000000000002,0.16025424003601074,
4.3274999999999997,0.16208133101463318,
4.3300000000000001,0.16479790210723877,
4.3324999999999996,0.16583165526390076,
4.335,0.16667306423187256,
4.3375000000000004,0.16725003719329834,
4.3399999999999999,0.16705772280693054,
4.3425000000000002,0.16587972640991211,
4.3449999999999998,0.16366800665855408,
4.3475000000000001,0.16023020446300507,
4.3499999999999996,0.14917156100273132,
4.3525,0.14152666926383972,
4.3550000000000004,0.13258358836174011,
4.3574999999999999,0.12255867570638657,
4.3600000000000003,0.10041733831167221,
4.3624999999999998,0.088877879083156586,
4.3650000000000002,0.077434584498405457,
4.3674999999999997,0.066279768943786621,
4.3700000000000001,0.045364499092102051,
4.3724999999999996,0.035652123391628265,
4.375,0.026396512985229492,
4.3775000000000004,0.017477473244071007,
4.3799999999999999,0.00048081082059070468,
4.3825000000000003,-0.0076689324341714382,
4.3849999999999998,-0.015578269958496094,
4.3875000000000002,-0.023175081238150597,
4.3899999999999997,-0.036830108612775803,
4.3925000000000001,-0.042671959847211838,
4.3949999999999996,-0.047792594879865646,
4.3975,-0.052167974412441254,
4.4000000000000004,-0.058899324387311935,
4.4024999999999999,-0.061519742012023926,
4.4050000000000002,-0.063851676881313324,
4.4074999999999998,-0.066039368510246277,
4.4100000000000001,-0.07031857967376709,
4.4124999999999996,-0.07243414968252182,
4.415,-0.074453555047512054,
4.4175000000000004,-0.076232552528381348,
4.4199999999999999,-0.078756809234619141,
4.4225000000000003,-0.079309746623039246,
4.4249999999999998,-0.079381868243217468,
4.4275000000000002,-0.079021260142326355,
4.4299999999999997,-0.077482663094997406,
4.4325000000000001,-0.076617203652858734,
4.4349999999999996,-0.075895987451076508,
4.4375,-0.075415179133415222,
4.4400000000000004,-0.075487300753593445,
4.4424999999999999,-0.075992152094841003,
4.4450000000000003,-0.076737403869628906,
4.4474999999999998,-0.077626906335353851,
4.4500000000000002,-0.079526111483573914,
4.4524999999999997,-0.080415606498718262,
4.4550000000000001,-0.081208944320678711,
4.4574999999999996,-0.081930160522460938,
4.46,-0.083156228065490723,
4.4625000000000004,-0.083709165453910828,
4.4649999999999999,-0.084214016795158386,
4.4675000000000002,-0.084694825112819672,
4.4699999999999998,-0.085416041314601898,
4.4725000000000001,-0.085632406175136566,
4.4749999999999996,-0.085752606391906738,
4.4775,-0.085800692439079285,
4.4800000000000004,-0.085728570818901062,
4.4824999999999999,-0.085680484771728516,
4.4850000000000003,-0.085584327578544617,
4.4874999999999998,-0.085464119911193848,
4.4900000000000002,-0.084887146949768066,
4.4924999999999997,-0.084334217011928558,
4.4950000000000001,-0.083516836166381836,
4.4974999999999996,-0.082435011863708496,
4.5,-0.07955014705657959,
4.5025000000000004,-0.077939435839653015,
4.5049999999999999,-0.076352760195732117,
4.5075000000000003,-0.074958406388759613,
4.5099999999999998,-0.07317940890789032,
4.5125000000000002,-0.072939001023769379,
4.5149999999999997,-0.073107287287712097,
4.5175000000000001,-0.073612138628959656,
4.5199999999999996,-0.075126692652702332,
4.5225,-0.075775787234306335,
4.5250000000000004,-0.076160430908203125,
4.5274999999999999,-0.076136395335197449,
4.5300000000000002,-0.074669919908046722,
4.5324999999999998,-0.073251530528068542,
4.5350000000000001,-0.071496568620204926,
4.5374999999999996,-0.069525241851806641,
4.54,-0.065582595765590668,
4.5425000000000004,-0.063827633857727051,
4.5449999999999999,-0.062361162155866623,
4.5475000000000003,-0.061183176934719086,
4.5499999999999998,-0.059620540589094162,
4.5525000000000002,-0.059115689247846603,
4.5549999999999997,-0.05875508114695549,
4.5575000000000001,-0.058442555367946625,
4.5599999999999996,-0.057985782623291016,
4.5625,-0.057865582406520844,
4.5650000000000004,-0.057865582406520844,
4.5674999999999999,-0.057985782623291016,
4.5700000000000003,-0.058658920228481293,
4.5724999999999998,-0.059139728546142578,
4.5750000000000002,-0.059644579887390137,
4.5774999999999997,-0.060053270310163498,
4.5800000000000001,-0.060341756790876389,
4.5824999999999996,-0.060125391930341721,
4.585,-0.059644579887390137,
4.5875000000000004,-0.058971446007490158,
4.5899999999999999,-0.057312648743391037,
4.5925000000000002,-0.056495271623134613,
4.5949999999999998,-0.055798094719648361,
4.5975000000000001,-0.055317282676696777,
4.5999999999999996,-0.055124960839748383,
4.6025,-0.055437486618757248,
4.6050000000000004,-0.056038498878479004,
4.6074999999999999,-0.056928001344203949,
4.6100000000000003,-0.059332054108381271,
4.6124999999999998,-0.060774486511945724,
4.6150000000000002,-0.062265001237392426,
4.6174999999999997,-0.063731476664543152,
4.6200000000000001,-0.066015325486660004,
4.6224999999999996,-0.066640377044677734,
4.625,-0.066808663308620453,
4.6275000000000004,-0.06644805520772934,
4.6299999999999999,-0.064308449625968933,
4.6325000000000003,-0.062673687934875488,
4.6349999999999998,-0.060822568833827972,
4.6375000000000002,-0.058875285089015961,
4.6399999999999997,-0.055100917816162109,
4.6425000000000001,-0.053394041955471039,
4.6449999999999996,-0.05180736631155014,
4.6475,-0.050292812287807465,
4.6500000000000004,-0.047335825860500336,
4.6524999999999999,-0.045869350433349609,
4.6550000000000002,-0.044402878731489182,
4.6574999999999998,-0.043056607246398926,
4.6600000000000001,-0.041109323501586914,
4.6624999999999996,-0.040796797722578049,
4.665,-0.041013162583112717,
4.6675000000000004,-0.041806500405073166,
4.6699999999999999,-0.04490773007273674,
4.6725000000000003,-0.046879053115844727,
4.6749999999999998,-0.048850379884243011,
4.6775000000000002,-0.050557255744934082,
4.6799999999999997,-0.052216053009033203,
4.6825000000000001,-0.051783323287963867,
4.6849999999999996,-0.050292812287807465,
4.6875,-0.047792594879865646,
4.6900000000000004,-0.039883255958557129,
4.6924999999999999,-0.034858785569667816,
4.6950000000000003,-0.029425621032714844,
4.6974999999999998,-0.023896297439932823,
4.7000000000000002,-0.01384735107421875,
4.7024999999999997,-0.0099768247455358505,
4.7050000000000001,-0.0072362027131021023,
4.7074999999999996,-0.0058899326249957085,
4.71,-0.0076689324341714382,
4.7125000000000004,-0.010794202797114849,
4.7149999999999999,-0.015241703018546104,
4.7175000000000002,-0.020819108933210373,
4.7199999999999998,-0.034041404724121094,
4.7225000000000001,-0.041037201881408691,
4.7249999999999996,-0.047888755798339844,
4.7275,-0.054283540695905685,
4.7300000000000004,-0.065101787447929382,
4.7324999999999999,-0.069332920014858246,
4.7350000000000003,-0.072722636163234711,
4.7374999999999998,-0.075343057513237,
4.7400000000000002,-0.078372165560722351,
4.7424999999999997,-0.078780852258205414,
4.7450000000000001,-0.078396201133728027,
4.7474999999999996,-0.077170133590698242,
4.75,-0.071857176721096039,
4.7525000000000004,-0.067842409014701843,
4.7549999999999999,-0.063178539276123047,
4.7575000000000003,-0.058298312127590179,
4.7599999999999998,-0.050461094826459885,
4.7625000000000002,-0.049186944961547852,
4.7649999999999997,-0.050869785249233246,
4.7675000000000001,-0.056351028382778168,
4.7699999999999996,-0.08058389276266098,
4.7725,-0.099263392388820648,
4.7750000000000004,-0.12142877280712128,
4.7774999999999999,-0.14570972323417664,
4.7800000000000002,-0.1921800822019577,
4.7824999999999998,-0.2091526985168457,
4.7850000000000001,-0.21804770827293396,
4.7874999999999996,-0.21588405966758728,
4.79,-0.16816358268260956,
4.7925000000000004,-0.11902471631765366,
4.7949999999999999,-0.052240096032619476,
4.7975000000000003,0.031276743859052658,
4.7999999999999998,0.23785710334777832,
4.8025000000000002,0.35212180018424988,
4.8049999999999997,0.46578547358512878,
4.8075000000000001,0.5719725489616394,
4.8099999999999996,0.73383748531341553,
4.8125,0.77723067998886108,
4.8150000000000004,0.78977984189987183,
4.8174999999999999,0.76975405216217041,
4.8200000000000003,0.63717049360275269,
4.8224999999999998,0.53326725959777832,
4.8250000000000002,0.41330498456954956,
4.8274999999999997,0.28560161590576172,
4.8300000000000001,0.040412150323390961,
4.8324999999999996,-0.062481366097927094,
4.835,-0.14534911513328552,
4.8375000000000004,-0.20569086074829102,
4.8399999999999999,-0.2598782479763031,
4.8425000000000002,-0.25894066691398621,
4.8449999999999998,-0.24480482935905457,
4.8475000000000001,-0.222206711769104,
4.8499999999999996,-0.16910116374492645,
4.8525,-0.14525294303894043,
4.8550000000000004,-0.12580415606498718,
4.8574999999999999,-0.11140386760234833,
4.8600000000000003,-0.095945797860622406,
4.8624999999999998,-0.092748403549194336,
4.8650000000000002,-0.09094536304473877,
4.8674999999999997,-0.089430809020996094,
4.8700000000000001,-0.084550581872463226,
4.8724999999999996,-0.080752179026603699,
4.875,-0.076232552528381348,
4.8775000000000004,-0.071328282356262207,
4.8799999999999999,-0.061928432434797287,
4.8825000000000003,-0.057961743324995041,
4.8849999999999998,-0.054620109498500824,
4.8875000000000002,-0.05185544490814209,
4.8899999999999997,-0.047335825860500336,
4.8925000000000001,-0.045244298875331879,
4.8949999999999996,-0.043056607246398926,
4.8975,-0.040700636804103851,
4.9000000000000004,-0.035700201988220215,
4.9024999999999999,-0.033272109925746918,
4.9050000000000002,-0.031036337837576866,
4.9074999999999998,-0.029113095253705978,
4.9100000000000001,-0.02632439136505127,
4.9124999999999996,-0.0253627710044384,
4.915,-0.024569433182477951,
4.9175000000000004,-0.023776095360517502,
4.9199999999999999,-0.02170860767364502,
4.9225000000000003,-0.020194053649902344,
4.9249999999999998,-0.018318891525268555,
4.9275000000000002,-0.013438662514090538,
4.9299999999999997,-0.010529756546020508,
4.9325000000000001,-0.0074044866487383842,
4.9349999999999996,-0.0041590137407183647,
4.9375,-0.00084141892148181796,
4.9400000000000004,0.0056735677644610405,
4.9424999999999999,0.0087988376617431641,
4.9450000000000003,0.011803905479609966,
4.9474999999999998,0.014664730057120323,
4.9500000000000002,0.020073851570487022,
4.9524999999999997,0.022694271057844162,
4.9550000000000001,0.025314688682556152,
4.9574999999999996,0.028031270951032639,
4.96,0.033969283103942871,
4.9625000000000004,0.037262838333845139,
4.9649999999999999,0.040844880044460297,
4.9675000000000002,0.044715404510498047,
4.9699999999999998,0.053321920335292816,
4.9725000000000001,0.058057904243469238,
4.9749999999999996,0.063058339059352875,
4.9775,0.073756381869316101,
4.9800000000000004,0.079405903816223145,
4.9824999999999999,0.085271798074245453,
4.9850000000000003,0.091257892549037933,
4.9874999999999998,0.10356664657592773,
4.9900000000000002,0.10979314893484116,
4.9924999999999997,0.11597156524658203,
4.9950000000000001,0.12205382436513901,
4.9974999999999996,0.13376156985759735,
5,0.13924281299114227,88.397796630859375
5.0025000000000004,0.1444355696439743,
5.0049999999999999,0.1492917537689209,
5.0075000000000003,0.15775403380393982,
5.0099999999999998,0.16128799319267273,
5.0125000000000002,0.16424497961997986,
5.0149999999999997,0.16657690703868866,
5.0175000000000001,0.16900500655174255,
5.0199999999999996,0.16890883445739746,
5.0225,0.16782701015472412,
5.0250000000000004,0.16568741202354431,
5.0274999999999999,0.15816271305084229,
5.0300000000000002,0.15282571315765381,
5.0324999999999998,0.14652709662914276,
5.0350000000000001,0.13941109180450439,
5.0374999999999996,0.13162195682525635,
5.04,0.11452913284301758,
5.0425000000000004,0.10541777312755585,
5.0449999999999999,0.096041962504386902,
5.0475000000000003,0.076448917388916016,
5.0499999999999998,0.066207647323608398,
5.0525000000000002,0.055605769157409668,
5.0549999999999997,0.044691365212202072,
5.0575000000000001,0.033536553382873535,
5.0599999999999996,0.010914405807852745,
5.0625,-0.00012020270514767617,
5.0650000000000004,-0.010673999786376953,
5.0674999999999999,-0.029449662193655968,
5.0700000000000003,-0.037358999252319336,
5.0724999999999998,-0.044234596192836761,
5.0750000000000002,-0.050076447427272797,
5.0774999999999997,-0.059283971786499023,
5.0800000000000001,-0.063010260462760925,
5.0824999999999996,-0.066375933587551117,
5.085,-0.069549284875392914,
5.0875000000000004,-0.075607500970363617,
5.0899999999999999,-0.07846832275390625,
5.0925000000000002,-0.081160865724086761,
5.0949999999999998,-0.083588957786560059,
5.0975000000000001,-0.087195038795471191,
5.0999999999999996,-0.088300906121730804,
5.1025,-0.088925957679748535,
5.1050000000000004,-0.089118286967277527,
5.1074999999999999,-0.088613435626029968,
5.1100000000000003,-0.088156662881374359,
5.1124999999999998,-0.08769989013671875,
5.1150000000000002,-0.08736332505941391,
5.1174999999999997,-0.087195038795471191,
5.1200000000000001,-0.087387368083000183,
5.1224999999999996,-0.087747976183891296,
5.125,-0.088252827525138855,
5.1275000000000004,-0.089334651827812195,
5.1299999999999999,-0.08981546014547348,
5.1325000000000003,-0.090176068246364594,
5.1349999999999998,-0.090440511703491211,
5.1375000000000002,-0.090512633323669434,
5.1399999999999997,-0.090392433106899261,
5.1425000000000001,-0.090224146842956543,
5.1449999999999996,-0.090007781982421875,
5.1475,-0.089647173881530762,
5.1500000000000004,-0.08952697366476059,
5.1524999999999999,-0.089454852044582367,
5.1550000000000002,-0.089406773447990417,
5.1574999999999998,-0.089286565780639648,
5.1600000000000001,-0.089142322540283203,
5.1624999999999996,-0.088877879083156586,
5.165,-0.088517270982265472,
5.1675000000000004,-0.087435446679592133,
5.1699999999999999,-0.086762309074401855,
5.1725000000000003,-0.086041092872619629,
5.1749999999999998,-0.085319876670837402,
5.1775000000000002,-0.083973608911037445,
5.1799999999999997,-0.083420678973197937,
5.1825000000000001,-0.082963906228542328,
5.1849999999999996,-0.082555219531059265,
5.1875,-0.081858038902282715,
5.1900000000000004,-0.081473395228385925,
5.1924999999999999,-0.080992579460144043,
5.1950000000000003,-0.080415606498718262,
5.1974999999999998,-0.078925095498561859,
5.2000000000000002,-0.077987514436244965,
5.2024999999999997,-0.076977811753749847,
5.2050000000000001,-0.075895987451076508,
5.2074999999999996,-0.073540017008781433,
5.21,-0.072313949465751648,
5.2125000000000004,-0.071087881922721863,
5.2149999999999999,-0.069837771356105804,
5.2175000000000002,-0.067457757890224457,
5.2199999999999998,-0.066472098231315613,
5.2225000000000001,-0.06570279598236084,
5.2249999999999996,-0.065221987664699554,
5.2275,-0.065246030688285828,
5.2300000000000004,-0.065774917602539062,
5.2324999999999999,-0.066520176827907562,
5.2350000000000003,-0.067409679293632507,
5.2374999999999998,-0.068972311913967133,
5.2400000000000002,-0.069356963038444519,
5.2424999999999997,-0.069308876991271973,
5.2450000000000001,-0.068828068673610687,
5.2474999999999996,-0.066568255424499512,
5.25,-0.065005622804164886,
5.2525000000000004,-0.063322782516479492,
5.2549999999999999,-0.061688028275966644,
5.2575000000000003,-0.059067606925964355,
5.2599999999999998,-0.058226190507411957,
5.2625000000000002,-0.057769417762756348,
5.2649999999999997,-0.057625174522399902,
5.2675000000000001,-0.058130025863647461,
5.2699999999999996,-0.058610837906599045,
5.2725,-0.059139728546142578,
5.2750000000000004,-0.059716701507568359,
5.2774999999999999,-0.060774486511945724,
5.2800000000000002,-0.06120721623301506,
5.2824999999999998,-0.061567824333906174,
5.2850000000000001,-0.061784189194440842,
5.2874999999999996,-0.061712067574262619,
5.29,-0.061351459473371506,
5.2925000000000004,-0.060774486511945724,
5.2949999999999999,-0.06000518798828125,
5.2975000000000003,-0.057985782623291016,
5.2999999999999998,-0.056855879724025726,
5.3025000000000002,-0.055725973099470139,
5.3049999999999997,-0.054644148796796799,
5.3075000000000001,-0.05260070413351059,
5.3099999999999996,-0.051615040749311447,
5.3125,-0.050533216446638107,
5.3150000000000004,-0.049331188201904297,
5.3174999999999999,-0.046470366418361664,
5.3200000000000003,-0.04478752613067627,
5.3224999999999998,-0.043080650269985199,
5.3250000000000002,-0.041421853005886078,
5.3274999999999997,-0.038849513977766037,
5.3300000000000001,-0.038200419396162033,
5.3324999999999996,-0.038056176155805588,
5.335,-0.038464866578578949,
5.3375000000000004,-0.040532350540161133,
5.3399999999999999,-0.041854582726955414,
5.3425000000000002,-0.043104689568281174,
5.3449999999999998,-0.044018231332302094,
5.3475000000000001,-0.044018231332302094,
5.3499999999999996,-0.04274408146739006,
5.3525,-0.040532350540161133,
5.3550000000000004,-0.037407081574201584,
5.3574999999999999,-0.02889673039317131,
5.3600000000000003,-0.023920338600873947,
5.3624999999999998,-0.018823742866516113,
5.3650000000000002,-0.013943513855338097,
5.3674999999999997,-0.0057456893846392632,
5.3700000000000001,-0.0028848648071289062,
5.3724999999999996,-0.00098566222004592419,
5.375,-9.6162162662949413e-05,
5.3775000000000004,-0.0010818243026733398,
5.3799999999999999,-0.0026925406418740749,
5.3825000000000003,-0.0048802299425005913,
5.3849999999999998,-0.0074766082689166069,
5.3875000000000002,-0.01353482436388731,
5.3899999999999997,-0.016924541443586349,
5.3925000000000001,-0.020506581291556358,
5.3949999999999996,-0.024377107620239258,
5.3975,-0.032983623445034027,
5.4000000000000004,-0.037719607353210449,
5.4024999999999999,-0.04262387752532959,
5.4050000000000002,-0.047600269317626953,
5.4074999999999998,-0.056879919022321701,
5.4100000000000001,-0.060654282569885254,
5.4124999999999996,-0.06353914737701416,
5.415,-0.065270066261291504,
5.4175000000000004,-0.064596936106681824,
5.4199999999999999,-0.062144797295331955,
5.4225000000000003,-0.058442555367946625,
5.4249999999999998,-0.053802728652954102,
5.4275000000000002,-0.043946109712123871,
5.4299999999999997,-0.04012366384267807,
5.4325000000000001,-0.038176380097866058,
5.4349999999999996,-0.038945674896240234,
5.4375,-0.051566958427429199,
5.4400000000000004,-0.06428440660238266,
5.4424999999999999,-0.081305108964443207,
5.4450000000000003,-0.10205209255218506,
5.4474999999999998,-0.15006105601787567,
5.4500000000000002,-0.17369291186332703,
5.4524999999999997,-0.19388696551322937,
5.4550000000000001,-0.20790259540081024,
5.4574999999999996,-0.20576298236846924,
5.46,-0.18424670398235321,
5.4625000000000004,-0.14631073176860809,
5.4649999999999999,-0.090825162827968597,
5.4675000000000002,0.071568690240383148,
5.4699999999999998,0.17446219921112061,
5.4725000000000001,0.28675556182861328,
5.4749999999999996,0.40296754240989685,
5.4775,0.62053442001342773,
5.4800000000000004,0.7076573371887207,
5.4824999999999999,0.77141284942626953,
5.4850000000000003,0.80660820007324219,
5.4874999999999998,0.78018766641616821,
5.4900000000000002,0.71900451183319092,
5.4924999999999997,0.63027083873748779,
5.4950000000000001,0.5201411247253418,
5.4974999999999996,0.26721060276031494,
5.5,0.14140646159648895,
5.5025000000000004,0.026540756225585938,
5.5049999999999999,-0.071304246783256531,
5.5075000000000003,-0.20203670859336853,
5.5099999999999998,-0.23357789218425751,
5.5125000000000002,-0.24506926536560059,
5.5149999999999997,-0.24026116728782654,
5.5175000000000001,-0.20013749599456787,
5.5199999999999996,-0.17388522624969482,
5.5225,-0.14840225875377655,
5.5250000000000004,-0.12618879973888397,
5.5274999999999999,-0.095801554620265961,
5.5300000000000002,-0.087411403656005859,
5.5324999999999998,-0.082362890243530273,
5.5350000000000001,-0.079429946839809418,
5.5374999999999996,-0.075270935893058777,
5.54,-0.07243414968252182,
5.5425000000000004,-0.06856362521648407,
5.5449999999999999,-0.063683390617370605,
5.5475000000000003,-0.052216053009033203,
5.5499999999999998,-0.046422284096479416,
5.5525000000000002,-0.041157405823469162,
5.5549999999999997,-0.036661826074123383,
5.5575000000000001,-0.030483406037092209,
5.5599999999999996,-0.028728445991873741,
5.5625,-0.027670662850141525,
5.5650000000000004,-0.027021568268537521,
5.5674999999999999,-0.026059946045279503,
5.5700000000000003,-0.025266608223319054,
5.5724999999999998,-0.024064581841230392,
5.5750000000000002,-0.022381743416190147,
5.5774999999999997,-0.017573636025190353,
5.5800000000000001,-0.014664730057120323,
5.5824999999999996,-0.011635622009634972,
5.585,-0.0086545944213867188,
5.5875000000000004,-0.0034858784638345242,
5.5899999999999999,-0.0015145540237426758,
5.5925000000000002,2.4040540665737353e-05,
5.5949999999999998,0.0012260675430297852,
5.5975000000000001,0.0031252703629434109,
5.5999999999999996,0.0041590137407183647,
5.6025,0.0054572029039263725,
5.6050000000000004,0.007140040397644043,
5.6074999999999999,0.011731783859431744,
5.6100000000000003,0.014520486816763878,
5.6124999999999998,0.017477473244071007,
5.6150000000000002,0.020482540130615234,
5.6174999999999997,0.026083987206220627,
5.6200000000000001,0.02860824391245842,
5.6224999999999996,0.030964216217398643,
5.625,0.033272109925746918,
5.6275000000000004,0.038464866578578949,
5.6299999999999999,0.041734378784894943,
5.6325000000000003,0.045701067894697189,
5.6349999999999998,0.050388973206281662,
5.6375000000000002,0.062048636376857758,
5.6399999999999997,0.068731904029846191,
5.6425000000000001,0.075703665614128113,
5.6449999999999996,0.082651376724243164,
5.6475,0.095537111163139343,
5.6500000000000004,0.10111451148986816,
5.6524999999999999,0.10597070306539536,
5.6550000000000002,0.11015375703573227,
5.6574999999999998,0.11722167581319809,
5.6600000000000001,0.12051522731781006,
5.6624999999999996,0.12400110810995102,
5.665,0.12787163257598877,
5.6675000000000004,0.13722340762615204,
5.6699999999999999,0.14270465075969696,
5.6725000000000003,0.14859458804130554,
5.6749999999999998,0.15462875366210938,
5.6775000000000002,0.16624033451080322,
5.6799999999999997,0.17124077677726746,
5.6825000000000001,0.1753997802734375,
5.6849999999999996,0.1785731315612793,
5.6875,0.18160223960876465,
5.6900000000000004,0.1814579963684082,
5.6924999999999999,0.18028001487255096,
5.6950000000000003,0.17821252346038818,
5.6974999999999998,0.17172157764434814,
5.7000000000000002,0.16744236648082733,
5.7024999999999997,0.16253809630870819,
5.7050000000000001,0.15696069598197937,
5.7074999999999996,0.14366626739501953,
5.71,0.13578097522258759,
5.7125000000000004,0.12705425918102264,
5.7149999999999999,0.11743804067373276,
5.7175000000000002,0.09584963321685791,
5.7199999999999998,0.084189973771572113,
5.7225000000000001,0.072217784821987152,
5.7249999999999996,0.060197513550519943,
5.7275,0.036878190934658051,
5.7300000000000004,0.025963783264160156,
5.7324999999999999,0.015746554359793663,
5.7350000000000003,0.0062265000306069851,
5.7374999999999998,-0.010673999786376953,
5.7400000000000002,-0.018150608986616135,
5.7424999999999997,-0.025098323822021484,
5.7450000000000001,-0.031541191041469574,
5.7474999999999996,-0.042984485626220703,
5.75,-0.047960877418518066,
5.7525000000000004,-0.052408378571271896,
5.7549999999999999,-0.056278906762599945,
5.7575000000000003,-0.06245732307434082,
5.7599999999999998,-0.064837336540222168,
5.7625000000000002,-0.066856741905212402,
5.7649999999999997,-0.068635746836662292,
5.7675000000000001,-0.071833133697509766,
5.7699999999999996,-0.073371730744838715,
5.7725,-0.07493436336517334,
5.7750000000000004,-0.076497003436088562,
5.7774999999999999,-0.079478025436401367,
5.7800000000000002,-0.080800257623195648,
5.7824999999999998,-0.081930160522460938,
5.7850000000000001,-0.082843706011772156,
5.7874999999999996,-0.083997651934623718,
5.79,-0.084214016795158386,
5.7925000000000004,-0.084262095391750336,
5.7949999999999999,-0.084141895174980164,
5.7975000000000003,-0.083516836166381836,
5.7999999999999998,-0.083132192492485046,
5.8025000000000002,-0.082723498344421387,
5.8049999999999997,-0.082338854670524597,
5.8075000000000001,-0.081954203546047211,
5.8099999999999996,-0.08200228214263916,
5.8125,-0.082290768623352051,
5.8150000000000004,-0.082795619964599609,
5.8174999999999999,-0.084334217011928558,
5.8200000000000003,-0.085223719477653503,
5.8224999999999998,-0.086065135896205902,
5.8250000000000002,-0.086762309074401855,
5.8274999999999997,-0.087387368083000183,
5.8300000000000001,-0.087195038795471191,
5.8324999999999996,-0.086690187454223633,
5.835,-0.085896849632263184,
5.8375000000000004,-0.083925530314445496,
5.8399999999999999,-0.082987949252128601,
5.8425000000000002,-0.082242690026760101,
5.8449999999999998,-0.081761881709098816,
5.8475000000000001,-0.08171379566192627,
5.8499999999999996,-0.082026325166225433,
5.8525,-0.082459054887294769,
5.8550000000000004,-0.082891784608364105,
5.8574999999999999,-0.083300471305847168,
5.8600000000000003,-0.0830841064453125,
5.8624999999999998,-0.082531176507472992,
5.8650000000000002,-0.081689760088920593,
5.8674999999999997,-0.079237625002861023,
5.8700000000000001,-0.077771149575710297,
5.8724999999999996,-0.076256595551967621,
5.875,-0.074766084551811218,
5.8775000000000004,-0.072073541581630707,
5.8799999999999999,-0.070967674255371094,
5.8825000000000003,-0.070078179240226746,
5.8849999999999998,-0.069380998611450195,
5.8875000000000002,-0.068587660789489746,
5.8899999999999997,-0.068395338952541351,
5.8925000000000001,-0.068299174308776855,
5.8949999999999996,-0.068178974092006683,
5.8975,-0.067602001130580902,
5.9000000000000004,-0.067000985145568848,
5.9024999999999999,-0.066135525703430176,
5.9050000000000002,-0.063731476664543152,
5.9074999999999998,-0.062313079833984375,
5.9100000000000001,-0.060846608132123947,
5.9124999999999996,-0.059404175728559494,
5.915,-0.058081947267055511,
5.9175000000000004,-0.055966377258300781,
5.9199999999999999,-0.055197082459926605,
5.9225000000000003,-0.054572027176618576,
5.9249999999999998,-0.054091215133666992,
5.9275000000000002,-0.053442120552062988,
5.9299999999999997,-0.05322575569152832,
5.9325000000000001,-0.053129594773054123,
5.9349999999999996,-0.053273838013410568,
5.9375,-0.053514242172241211,
5.9400000000000004,-0.053826771676540375,
5.9424999999999999,-0.054211419075727463,
5.9450000000000003,-0.054596066474914551,
5.9474999999999998,-0.055076878517866135,
5.9500000000000002,-0.05505283921957016,
5.9524999999999997,-0.054836474359035492,
5.9550000000000001,-0.053778689354658127,
5.9574999999999996,-0.053081512451171875,
5.96,-0.052360296249389648,
5.9625000000000004,-0.05168716236948967,
5.9649999999999999,-0.05077362060546875,
5.9675000000000002,-0.050581298768520355,
5.9699999999999998,-0.050557255744934082,
5.9725000000000001,-0.050629377365112305,
5.9749999999999996,-0.050893824547529221,
5.9775,-0.050917863845825195,
5.9800000000000004,-0.05077362060546875,
5.9824999999999999,-0.050485134124755859,
5.9850000000000003,-0.049283109605312347,
5.9874999999999998,-0.048393607139587402,
5.9900000000000002,-0.047335825860500336,
5.9924999999999997,-0.046133797615766525,
5.9950000000000001,-0.043272972106933594,
5.9974999999999996,-0.041638217866420746,
6,-0.039883255958557129,86.77685546875
6.0025000000000004,-0.038056176155805588,
6.0049999999999999,-0.0345943383872509,
6.0075000000000003,-0.033175945281982422,
6.0099999999999998,-0.032166242599487305,
6.0125000000000002,-0.031613312661647797,
6.0149999999999997,-0.03214220330119133,
6.0175000000000001,-0.033079784363508224,
6.0199999999999996,-0.034233730286359787,
6.0225,-0.035291515290737152,
6.0250000000000004,-0.035820405930280685,
6.0274999999999999,-0.034666460007429123,
6.0300000000000002,-0.032238364219665527,
6.0324999999999998,-0.028536122292280197,
6.0350000000000001,-0.017717879265546799,
6.0374999999999996,-0.011250972747802734,
6.04,-0.004735986702144146,
6.0425000000000004,0.0013222297420725226,
6.0449999999999999,0.01028935145586729,
6.0475000000000003,0.012525121681392193,
6.0499999999999998,0.013102094642817974,
6.0525000000000002,0.012044310569763184,
6.0549999999999997,0.0058899326249957085,
6.0575000000000001,0.0013943513622507453,
6.0599999999999996,-0.0036541621666401625,
6.0625,-0.0089911622926592827,
6.0650000000000004,-0.019929608330130577,
6.0674999999999999,-0.0253627710044384,
6.0700000000000003,-0.030747851356863976,
6.0724999999999998,-0.036036770790815353,
6.0750000000000002,-0.041229527443647385,
6.0774999999999997,-0.050941906869411469,
6.0800000000000001,-0.055149000138044357,
6.0824999999999996,-0.058682959526777267,
6.085,-0.062890052795410156,
6.0875000000000004,-0.06320258229970932,
6.0899999999999999,-0.062192879617214203,
6.0925000000000002,-0.059860944747924805,
6.0949999999999998,-0.051759283989667892,
6.0975000000000001,-0.046614609658718109,
6.0999999999999996,-0.041349731385707855,
6.1025,-0.036637783050537109,
6.1050000000000004,-0.031877756118774414,
6.1074999999999999,-0.033488474786281586,
6.1100000000000003,-0.038705270737409592,
6.1124999999999998,-0.048081081360578537,
6.1150000000000002,-0.079718433320522308,
6.1174999999999997,-0.10113855451345444,
6.1200000000000001,-0.12479444593191147,
6.1224999999999996,-0.14897923171520233,
6.125,-0.18924713134765625,
6.1275000000000004,-0.19975285232067108,
6.1299999999999999,-0.19987305998802185,
6.1325000000000003,-0.18681904673576355,
6.1349999999999998,-0.11275013536214828,
6.1375000000000002,-0.049619674682617188,
6.1399999999999997,0.030363202095031738,
6.1425000000000001,0.12510697543621063,
6.1449999999999996,0.34339508414268494,
6.1475,0.45604905486106873,
6.1500000000000004,0.56226015090942383,
6.1524999999999999,0.65503263473510742,
6.1550000000000002,0.77475452423095703,
6.1574999999999998,0.79199159145355225,
6.1600000000000001,0.77747106552124023,
6.1624999999999996,0.73160171508789062,
6.165,0.55923104286193848,
6.1675000000000004,0.44455766677856445,
6.1699999999999999,0.32108545303344727,
6.1725000000000003,0.19708435237407684,
6.1749999999999998,-0.022525986656546593,
6.1775000000000002,-0.10669191926717758,
6.1799999999999997,-0.16943773627281189,
6.1825000000000001,-0.21018645167350769,
6.1849999999999996,-0.23290476202964783,
6.1875,-0.22189418971538544,
6.1900000000000004,-0.20182034373283386,
6.1924999999999999,-0.17701050639152527,
6.1950000000000003,-0.12731871008872986,
6.1974999999999998,-0.10712464898824692,
6.2000000000000002,-0.091498300433158875,
6.2024999999999997,-0.080343484878540039,
6.2050000000000001,-0.068539582192897797,
6.2074999999999996,-0.065774917602539062,
6.21,-0.063659355044364929,
6.2125000000000004,-0.061471663415431976,
6.2149999999999999,-0.055197082459926605,
6.2175000000000002,-0.050965946167707443,
6.2199999999999998,-0.046205919235944748,
6.2225000000000001,-0.041277609765529633,
6.2249999999999996,-0.032070081681013107,
6.2275,-0.028271675109863281,
6.2300000000000004,-0.025170445442199707,
6.2324999999999999,-0.022814473137259483,
6.2350000000000003,-0.019977688789367676,
6.2374999999999998,-0.019184350967407227,
6.2400000000000002,-0.018559297546744347,
6.2424999999999997,-0.017910202965140343,
6.2450000000000001,-0.01584271714091301,
6.2474999999999996,-0.014256040565669537,
6.25,-0.012284716591238976,
6.2525000000000004,-0.0099527835845947266,
6.2549999999999999,-0.0047119460068643093,
6.2575000000000003,-0.002067486522719264,
6.2599999999999998,0.00043272972106933594,
6.2625000000000002,0.0027165811043232679,
6.2649999999999997,0.006611148826777935,
6.2675000000000001,0.0083661079406738281,
6.2699999999999996,0.010121067985892296,
6.2725,0.012044310569763184,
6.2750000000000004,0.01675625704228878,
6.2774999999999999,0.019641121849417686,
6.2800000000000002,0.022838514298200607,
6.2824999999999998,0.026228230446577072,
6.2850000000000001,0.033079784363508224,
6.2874999999999996,0.036253135651350021,
6.29,0.039113961160182953,
6.2925000000000004,0.041566096246242523,
6.2949999999999999,0.045532785356044769,
6.2975000000000003,0.047263704240322113,
6.2999999999999998,0.049090784043073654,
6.3025000000000002,0.051158271729946136,
6.3049999999999997,0.056855879724025726,
6.3075000000000001,0.060678325593471527,
6.3099999999999996,0.065197944641113281,
6.3125,0.07031857967376709,
6.3150000000000004,0.081930160522460938,
6.3174999999999999,0.088084541261196136,
6.3200000000000003,0.094238921999931335,
6.3224999999999998,0.10034521669149399,
6.3250000000000002,0.11212508380413055,
6.3274999999999997,0.11787077039480209,
6.3300000000000001,0.12356837838888168,
6.3324999999999996,0.12931406497955322,
6.335,0.14090161025524139,
6.3375000000000004,0.14664730429649353,
6.3399999999999999,0.15215258300304413,
6.3425000000000002,0.15729725360870361,
6.3449999999999998,0.16575953364372253,
6.3475000000000001,0.16883671283721924,
6.3499999999999996,0.17112056910991669,
6.3525,0.17268320918083191,
6.3550000000000004,0.17417371273040771,
6.3574999999999999,0.17446219921112061,
6.3600000000000003,0.1746545284986496,
6.3624999999999998,0.17482280731201172,
6.3650000000000002,0.17479877173900604,
6.3674999999999997,0.17431795597076416,
6.3700000000000001,0.17321209609508514,
6.3724999999999996,0.17116865515708923,
6.375,0.16354779899120331,
6.3775000000000004,0.15770594775676727,
6.3799999999999999,0.15051782131195068,
6.3825000000000003,0.1421036422252655,
6.3849999999999998,0.12246251106262207,
6.3875000000000002,0.11174043267965317,
6.3899999999999997,0.10072986781597137,
6.3925000000000001,0.089647173881530762,
6.3949999999999996,0.067722201347351074,
6.3975,0.057000122964382172,
6.4000000000000004,0.046494405716657639,
6.4024999999999999,0.036229096353054047,
6.4050000000000002,0.016636054962873459,
6.4074999999999998,0.0075006484985351562,
6.4100000000000001,-0.001033743261359632,
6.4124999999999996,-0.0088709592819213867,
6.415,-0.022141337394714355,
6.4175000000000004,-0.027598541229963303,
6.4199999999999999,-0.032358568161725998,
6.4225000000000003,-0.036613743752241135,
6.4249999999999998,-0.044282674789428711,
6.4275000000000002,-0.048008959740400314,
6.4299999999999997,-0.05180736631155014,
6.4325000000000001,-0.055629812180995941,
6.4349999999999996,-0.062890052795410156,
6.4375,-0.065967246890068054,
6.4400000000000004,-0.068347260355949402,
6.4424999999999999,-0.069885849952697754,
6.4450000000000003,-0.070102214813232422,
6.4474999999999998,-0.068876147270202637,
6.4500000000000002,-0.066976949572563171,
6.4524999999999997,-0.064717136323451996,
6.4550000000000001,-0.060365796089172363,
6.4574999999999996,-0.058875285089015961,
6.46,-0.058154068887233734,
6.4625000000000004,-0.058322351425886154,
6.4649999999999999,-0.061135094612836838,
6.4675000000000002,-0.063491068780422211,
6.4699999999999998,-0.066183611750602722,
6.4725000000000001,-0.068972311913967133,
6.4749999999999996,-0.073876582086086273,
6.4775,-0.07567962259054184,
6.4800000000000004,-0.076953768730163574,
6.4824999999999999,-0.077723070979118347,
6.4850000000000003,-0.078035593032836914,
6.4874999999999998,-0.077819228172302246,
6.4900000000000002,-0.077458620071411133,
6.4924999999999997,-0.07704993337392807,
6.4950000000000001,-0.076160430908203125,
6.4974999999999996,-0.075703665614128113,
6.5,-0.075174771249294281,
6.5025000000000004,-0.07454971969127655,
6.5049999999999999,-0.073011122643947601,
6.5075000000000003,-0.072121620178222656,
6.5099999999999998,-0.071184039115905762,
6.5125000000000002,-0.07027050107717514,
6.5149999999999997,-0.068587660789489746,
6.5175000000000001,-0.067890487611293793,
6.5199999999999996,-0.067289471626281738,
6.5225,-0.066808663308620453,
6.5250000000000004,-0.066159568727016449,
6.5274999999999999,-0.065943203866481781,
6.5300000000000002,-0.065726839005947113,
6.5324999999999998,-0.065534517168998718,
6.5350000000000001,-0.065053701400756836,
6.5374999999999996,-0.064693093299865723,
6.54,-0.064212284982204437,
6.5425000000000004,-0.063635312020778656,
6.5449999999999999,-0.062048636376857758,
6.5475000000000003,-0.061111055314540863,
6.5499999999999998,-0.060101352632045746,
6.5525000000000002,-0.059019528329372406,
6.5549999999999997,-0.056783758103847504,
6.5575000000000001,-0.055653851479291916,
6.5599999999999996,-0.054523944854736328,
6.5625,-0.053394041955471039,
6.5650000000000004,-0.051302514970302582,
6.5674999999999999,-0.050413012504577637,
6.5700000000000003,-0.049667757004499435,
6.5724999999999998,-0.049114823341369629,
6.5750000000000002,-0.048730175942182541,
6.5774999999999997,-0.048826336860656738,
6.5800000000000001,-0.048994623124599457,
6.5824999999999996,-0.049162905663251877,
6.585,-0.048898458480834961,
6.5875000000000004,-0.04832148551940918,
6.5899999999999999,-0.047383904457092285,
6.5925000000000002,-0.046181879937648773,
6.5949999999999998,-0.043465297669172287,
6.5975000000000001,-0.042359434068202972,
6.5999999999999996,-0.041614174842834473,
6.6025,-0.04137377068400383,
6.6050000000000004,-0.042479634284973145,
6.6074999999999999,-0.043561458587646484,
6.6100000000000003,-0.044763486832380295,
6.6124999999999998,-0.045797228813171387,
6.6150000000000002,-0.046662688255310059,
6.6174999999999997,-0.046278040856122971,
6.6200000000000001,-0.045364499092102051,
6.6224999999999996,-0.044114392250776291,
6.625,-0.041421853005886078,
6.6275000000000004,-0.040484271943569183,
6.6299999999999999,-0.040027499198913574,
6.6325000000000003,-0.04017174243927002,
6.6349999999999998,-0.041902661323547363,
6.6375000000000002,-0.043128728866577148,
6.6399999999999997,-0.044258635491132736,
6.6425000000000001,-0.045051973313093185,
6.6449999999999996,-0.04473944753408432,
6.6475,-0.043465297669172287,
6.6500000000000004,-0.041421853005886078,
6.6524999999999999,-0.03875335305929184,
6.6550000000000002,-0.032406650483608246,
6.6574999999999998,-0.029209256172180176,
6.6600000000000001,-0.026372473686933517,
6.6624999999999996,-0.024136703461408615,
6.665,-0.022165378555655479,
6.6675000000000004,-0.022622149437665939,
6.6699999999999999,-0.024040540680289268,
6.6725000000000003,-0.026252269744873047,
6.6749999999999998,-0.03214220330119133,
6.6775000000000002,-0.035099189728498459,
6.6799999999999997,-0.037575364112854004,
6.6825000000000001,-0.039186082780361176,
6.6849999999999996,-0.038512945175170898,
6.6875,-0.035940609872341156,
6.6900000000000004,-0.031901799142360687,
6.6924999999999999,-0.026588838547468185,
6.6950000000000003,-0.013655027374625206,
6.6974999999999998,-0.0069957971572875977,
6.7000000000000002,-0.00086545944213867188,
6.7024999999999997,0.0042792162857949734,
6.7050000000000001,0.010265311226248741,
6.7074999999999996,0.010794202797114849,
6.71,0.0096642971038818359,
6.7125000000000004,0.0071160001680254936,
6.7149999999999999,-0.0012741487007588148,
6.7175000000000002,-0.0064428648911416531,
6.7199999999999998,-0.011803905479609966,
6.7225000000000001,-0.017068784683942795,
6.7249999999999996,-0.026492675766348839,
6.7275,-0.030411284416913986,
6.7300000000000004,-0.033728878945112228,
6.7324999999999999,-0.036493539810180664,
6.7350000000000003,-0.040724676102399826,
6.7374999999999998,-0.042431555688381195,
6.7400000000000002,-0.044042270630598068,
6.7424999999999997,-0.045604906976222992,
6.7450000000000001,-0.048730175942182541,
6.7474999999999996,-0.050148569047451019,
6.75,-0.051302514970302582,
6.7525000000000004,-0.051999688148498535,
6.7549999999999999,-0.051206350326538086,
6.7575000000000003,-0.049547553062438965,
6.7599999999999998,-0.047167539596557617,
6.7625000000000002,-0.044354796409606934,
6.7649999999999997,-0.039835177361965179,
6.7675000000000001,-0.039642851799726486,
6.7699999999999996,-0.041974782943725586,
6.7725,-0.047624312341213226,
6.7750000000000004,-0.070534944534301758,
6.7774999999999999,-0.087675854563713074,
6.7800000000000002,-0.10765354335308075,
6.7824999999999998,-0.12909770011901855,
6.7850000000000001,-0.16806742548942566,
6.7874999999999996,-0.18047234416007996,
6.79,-0.18441498279571533,
6.7925000000000004,-0.17710666358470917,
6.7949999999999999,-0.11943340301513672,
6.7975000000000003,-0.066183611750602722,
6.7999999999999998,0.0036782026290893555,
6.8025000000000002,0.088877879083156586,
6.8049999999999997,0.29329460859298706,
6.8075000000000001,0.40328007936477661,
6.8099999999999996,0.51050090789794922,
6.8125,0.6081535816192627,
6.8150000000000004,0.7483099102973938,
6.8174999999999999,0.77965879440307617,
6.8200000000000003,0.78033190965652466,
6.8224999999999998,0.6881604790687561,
6.8250000000000002,0.60055673122406006,
6.8274999999999997,0.49247047305107117,
6.8300000000000001,0.37135422229766846,
6.8324999999999996,0.2454298734664917,
6.835,0.011491378769278526,
6.8375000000000004,-0.083132192492485046,
6.8399999999999999,-0.15688857436180115,
6.8425000000000002,-0.20802280306816101,
6.8449999999999998,-0.2461751401424408,
6.8475000000000001,-0.23925146460533142,
6.8499999999999996,-0.22076427936553955,
6.8525,-0.16770681738853455,
6.8550000000000004,-0.14104585349559784,
6.8574999999999999,-0.11794289201498032,
6.8600000000000003,-0.099768243730068207,
6.8624999999999998,-0.078756809234619141,
6.8650000000000002,-0.074381433427333832,
6.8674999999999997,-0.07248222827911377,
6.8700000000000001,-0.071809098124504089,
6.8724999999999996,-0.070078179240226746,
6.875,-0.067890487611293793,
6.8775000000000004,-0.064645014703273773,
6.8799999999999999,-0.060461960732936859,
6.8825000000000003,-0.050581298768520355,
6.8849999999999998,-0.045580863952636719,
6.8875000000000002,-0.040941040962934494,
6.8899999999999997,-0.036830108612775803,
6.8925000000000001,-0.030387243255972862,
6.8949999999999996,-0.028007229790091515,
6.8975,-0.026108026504516602,
6.9000000000000004,-0.024593472480773926,
6.9024999999999999,-0.022213459014892578,
6.9050000000000002,-0.021155675873160362,
6.9074999999999998,-0.020097892731428146,
6.9100000000000001,-0.01891990564763546,
6.9124999999999996,-0.015962919220328331,
6.915,-0.014111797325313091,
6.9175000000000004,-0.011996230110526085,
6.9199999999999999,-0.0095921754837036133,
6.9225000000000003,-0.0042070946656167507,
6.9249999999999998,-0.0013703107833862305,
6.9275000000000002,0.001466472982428968,
6.9299999999999997,0.0041830539703369141,
6.9325000000000001,0.009039243683218956,
6.9349999999999996,0.011106729507446289,
6.9375,0.012933811172842979,
6.9400000000000004,0.014592608436942101,
6.9424999999999999,0.017645757645368576,
6.9450000000000003,0.019232433289289474,
6.9474999999999998,0.020987391471862793,
6.9500000000000002,0.023006796836853027,
6.9524999999999997,0.028031270951032639,
6.9550000000000001,0.031108459457755089,
6.9574999999999996,0.034546256065368652,
6.96,0.038344662636518478,
6.9625000000000004,0.046782892197370529,
6.9649999999999999,0.051350593566894531,
6.9675000000000002,0.056062541902065277,
6.9699999999999998,0.060894690454006195,
6.9725000000000001,0.070679187774658203,
6.9749999999999996,0.075559422373771667,
6.9775,0.080415606498718262,
6.9800000000000004,0.08519967645406723,
6.9824999999999999,0.094551444053649902,
6.9850000000000003,0.099167227745056152,
6.9874999999999998,0.10380705446004868,
6.9900000000000002,0.10849495977163315,
6.9924999999999997,0.1183275431394577,
6.9950000000000001,0.12354433536529541,
6.9974999999999996,0.12897750735282898,
7,0.13457894325256348,87.272727966308594
7.0025000000000004,0.14595012366771698,
7.0049999999999999,0.1514313668012619,
7.0075000000000003,0.15652796626091003,
7.0099999999999998,0.16109566390514374,
7.0125000000000002,0.16806742548942566,
7.0149999999999997,0.17030319571495056,
7.0175000000000001,0.17167350649833679,
7.0199999999999996,0.17225047945976257,
7.0225,0.17131289839744568,
7.0250000000000004,0.16994258761405945,
7.0274999999999999,0.16809146106243134,
7.0300000000000002,0.16573548316955566,
7.0324999999999998,0.15934070944786072,
7.0350000000000001,0.15510956943035126,
7.0374999999999996,0.15006105601787567,
7.04,0.14407496154308319,
7.0425000000000004,0.1290496289730072,
7.0449999999999999,0.12008249759674072,
7.0475000000000003,0.11022587865591049,
7.0499999999999998,0.099672079086303711,
7.0525000000000002,0.077242255210876465,
7.0549999999999997,0.065774917602539062,
7.0575000000000001,0.054355662316083908,
7.0599999999999996,0.043176811188459396,
7.0625,0.021900933235883713,
7.0650000000000004,0.011972188949584961,
7.0674999999999999,0.0025482974015176296,
7.0700000000000003,-0.0063226623460650444,
7.0724999999999998,-0.022165378555655479,
7.0750000000000002,-0.029113095253705978,
7.0774999999999997,-0.035387676209211349,
7.0800000000000001,-0.040989123284816742,
7.0824999999999996,-0.050413012504577637,
7.085,-0.054403744637966156,
7.0875000000000004,-0.058057904243469238,
7.0899999999999999,-0.061471663415431976,
7.0925000000000002,-0.06786644458770752,
7.0949999999999998,-0.070847474038600922,
7.0975000000000001,-0.073612138628959656,
7.0999999999999996,-0.076064273715019226,
7.1025,-0.07950206845998764,
7.1050000000000004,-0.080343484878540039,
7.1074999999999999,-0.080535814166069031,
7.1100000000000003,-0.080151163041591644,
7.1124999999999998,-0.078251957893371582,
7.1150000000000002,-0.077146098017692566,
7.1174999999999997,-0.076280638575553894,
7.1200000000000001,-0.075799822807312012,
7.1224999999999996,-0.076545082032680511,
7.125,-0.077771149575710297,
7.1275000000000004,-0.079405903816223145,
7.1299999999999999,-0.081257030367851257,
7.1325000000000003,-0.084766946732997894,
7.1349999999999998,-0.085993014276027679,
7.1375000000000002,-0.086666151881217957,
7.1399999999999997,-0.086786352097988129,
7.1425000000000001,-0.08553624153137207,
7.1449999999999996,-0.084478460252285004,
7.1475,-0.083348557353019714,
7.1500000000000004,-0.082362890243530273,
7.1524999999999999,-0.08132915198802948,
7.1550000000000002,-0.081425309181213379,
7.1574999999999998,-0.081858038902282715,
7.1600000000000001,-0.082603298127651215,
7.1624999999999996,-0.084406338632106781,
7.165,-0.085223719477653503,
7.1675000000000004,-0.085776649415493011,
7.1699999999999999,-0.086041092872619629,
7.1725000000000003,-0.085440084338188171,
7.1749999999999998,-0.084622703492641449,
7.1775000000000002,-0.083564922213554382,
7.1799999999999997,-0.082338854670524597,
7.1825000000000001,-0.079862676560878754,
7.1849999999999996,-0.078852973878383636,
7.1875,-0.078107714653015137,
7.1900000000000004,-0.077699027955532074,
7.1924999999999999,-0.07779519259929657,
7.1950000000000003,-0.078227922320365906,
7.1974999999999998,-0.078780852258205414,
7.2000000000000002,-0.079357825219631195,
7.2024999999999997,-0.080079041421413422,
7.2050000000000001,-0.080079041421413422,
7.2074999999999996,-0.079742476344108582,
7.21,-0.079093381762504578,
7.2125000000000004,-0.076881647109985352,
7.2149999999999999,-0.075415179133415222,
7.2175000000000002,-0.073828503489494324,
7.2199999999999998,-0.072145663201808929,
7.2225000000000001,-0.070438787341117859,
7.2249999999999996,-0.067217350006103516,
7.2275,-0.065823003649711609,
7.2300000000000004,-0.064645014703273773,
7.2324999999999999,-0.063130460679531097,
7.2350000000000003,-0.06286601722240448,
7.2374999999999998,-0.062890052795410156,
7.2400000000000002,-0.06320258229970932,
7.2424999999999997,-0.064308449625968933,
7.2450000000000001,-0.064909458160400391,
7.2474999999999996,-0.065342187881469727,
7.25,-0.065534517168998718,
7.2525000000000004,-0.06502966582775116,
7.2549999999999999,-0.064380571246147156,
7.2575000000000003,-0.063563190400600433,
7.2599999999999998,-0.062721773982048035,
7.2625000000000002,-0.061591863632202148,
7.2649999999999997,-0.061519742012023926,
7.2675000000000001,-0.061856310814619064,
7.2699999999999996,-0.062601566314697266,
7.2725,-0.064813300967216492,
7.2750000000000004,-0.065967246890068054,
7.2774999999999999,-0.066880784928798676,
7.2800000000000002,-0.06748180091381073,
7.2824999999999998,-0.067241393029689789,
7.2850000000000001,-0.06644805520772934,
7.2874999999999996,-0.065342187881469727,
7.29,-0.064019963145256042,
7.2925000000000004,-0.061519742012023926,
7.2949999999999999,-0.060606203973293304,
7.2975000000000003,-0.060029231011867523,
7.2999999999999998,-0.059812866151332855,
7.3025000000000002,-0.060389839112758636,
7.3049999999999997,-0.061062972992658615,
7.3075000000000001,-0.061856310814619064,
7.3099999999999996,-0.062697730958461761,
7.3125,-0.064068041741847992,
7.3150000000000004,-0.064404606819152832,
7.3174999999999999,-0.064404606819152832,
7.3200000000000003,-0.063971877098083496,
7.3224999999999998,-0.061663985252380371,
7.3250000000000002,-0.059788823127746582,
7.3274999999999997,-0.05750497430562973,
7.3300000000000001,-0.054932635277509689,
7.3324999999999996,-0.04969179630279541,
7.335,-0.047407947480678558,
7.3375000000000004,-0.045604906976222992,
7.3399999999999999,-0.044426918029785156,
7.3425000000000002,-0.044066309928894043,
7.3449999999999998,-0.04478752613067627,
7.3475000000000001,-0.045845311135053635,
7.3499999999999996,-0.047023296356201172,
7.3525,-0.048658054322004318,
7.3550000000000004,-0.048537850379943848,
7.3574999999999999,-0.047576230019330978,
7.3600000000000003,-0.045580863952636719,
7.3624999999999998,-0.038609109818935394,
7.3650000000000002,-0.033825039863586426,
7.3674999999999997,-0.028415918350219727,
7.3700000000000001,-0.022670229896903038,
7.3724999999999996,-0.01137117575854063,
7.375,-0.0064428648911416531,
7.3775000000000004,-0.0024280946236103773,
7.3799999999999999,0.00040868920041248202,
7.3825000000000003,0.0019232432823628187,
7.3849999999999998,0.00038464865065179765,
7.3875000000000002,-0.0026444594841450453,
7.3899999999999997,-0.0069957971572875977,
7.3925000000000001,-0.018751621246337891,
7.3949999999999996,-0.025482973083853722,
7.3975,-0.032286446541547775,
7.4000000000000004,-0.038801431655883789,
7.4024999999999999,-0.049787960946559906,
7.4050000000000002,-0.053850810974836349,
7.4074999999999998,-0.056903958320617676,
7.4100000000000001,-0.059019528329372406,
7.4124999999999996,-0.061111055314540863,
7.415,-0.061471663415431976,
7.4175000000000004,-0.061591863632202148,
7.4199999999999999,-0.061591863632202148,
7.4225000000000003,-0.061111055314540863,
7.4249999999999998,-0.060413878411054611,
7.4275000000000002,-0.059163771569728851,
7.4299999999999997,-0.057288609445095062,
7.4325000000000001,-0.051903527230024338,
7.4349999999999996,-0.049018662422895432,
7.4375,-0.046758852899074554,
7.4400000000000004,-0.04598955437541008,
7.4424999999999999,-0.052552621811628342,
7.4450000000000003,-0.061519742012023926,
7.4474999999999998,-0.074910327792167664,
7.4500000000000002,-0.09272436797618866,
7.4524999999999997,-0.13854563236236572,
7.4550000000000001,-0.16349971294403076,
7.4574999999999996,-0.18684308230876923,
7.46,-0.20573894679546356,
7.4625000000000004,-0.21792750060558319,
7.4649999999999999,-0.20518600940704346,
7.4675000000000002,-0.17650565505027771,
7.4699999999999998,-0.13027569651603699,
7.4725000000000001,0.016203325241804123,
7.4749999999999996,0.1137598380446434,
7.4775,0.22333662211894989,
7.4800000000000004,0.3399813175201416,
7.4824999999999999,0.56906366348266602,
7.4850000000000003,0.66724520921707153,
7.4874999999999998,0.74501633644104004,
7.4900000000000002,0.79631888866424561,
7.4924999999999997,0.8037954568862915,
7.4950000000000001,0.75780594348907471,
7.4974999999999996,0.68142914772033691,
7.5,0.57985782623291016,
7.5025000000000004,0.3306536078453064,
7.5049999999999999,0.20018558204174042,
7.5075000000000003,0.077073976397514343,
7.5099999999999998,-0.031589269638061523,
7.5125000000000002,-0.18691520392894745,
7.5149999999999997,-0.22997181117534637,
7.5175000000000001,-0.25122365355491638,
7.5199999999999996,-0.25391620397567749,
7.5225,-0.2213653028011322,
7.5250000000000004,-0.19556979835033417,
7.5274999999999999,-0.16895692050457001,
7.5300000000000002,-0.14448365569114685,
7.5324999999999998,-0.10837475955486298,
7.5350000000000001,-0.097292065620422363,
7.5374999999999996,-0.090079903602600098,
7.54,-0.08553624153137207,
7.5425000000000004,-0.080103084444999695,
7.5449999999999999,-0.077458620071411133,
7.5475000000000003,-0.074285268783569336,
7.5499999999999998,-0.070462822914123535,
7.5525000000000002,-0.061567824333906174,
7.5549999999999997,-0.057024162262678146,
7.5575000000000001,-0.052744947373867035,
7.5599999999999996,-0.048850379884243011,
7.5625,-0.042359434068202972,
7.5650000000000004,-0.039642851799726486,
7.5674999999999999,-0.037214756011962891,
7.5700000000000003,-0.034954946488142014,
7.5724999999999998,-0.030844014137983322,
7.5750000000000002,-0.028992891311645508,
7.5774999999999997,-0.027286013588309288,
7.5800000000000001,-0.025747418403625488,
7.5824999999999996,-0.023127000778913498,
7.585,-0.02199709415435791,
7.5875000000000004,-0.020963352173566818,
7.5899999999999999,-0.019953649491071701,
7.5925000000000002,-0.01783808134496212,
7.5949999999999998,-0.016612013801932335,
7.5975000000000001,-0.01521766185760498,
7.5999999999999996,-0.013606945984065533,
7.6025,-0.0095921754837036133,
7.6050000000000004,-0.0071160001680254936,
7.6074999999999999,-0.0043753786012530327,
7.6100000000000003,-0.0013462703209370375,
7.6124999999999998,0.0051687164232134819,
7.6150000000000002,0.0085103511810302734,
7.6174999999999997,0.011755824089050293,
7.6200000000000001,0.014881094917654991,
7.6224999999999996,0.020506581291556358,
7.625,0.02307891845703125,
7.6275000000000004,0.02553105354309082,
7.6299999999999999,0.028007229790091515,
7.6325000000000003,0.033296149224042892,
7.6349999999999998,0.036277174949645996,
7.6375000000000002,0.039546690881252289,
7.6399999999999997,0.043056607246398926,
7.6425000000000001,0.05077362060546875,
7.6449999999999996,0.054860513657331467,
7.6475,0.059067606925964355,
7.6500000000000004,0.063346825540065765,
