Data Set 1:Time(s),Data Set 1:EKG(mV),Data Set 1:Heart Rate(bpm)
0,-0.20316660404205322,90.056289672851562
0.0025000000000000001,-0.20054619014263153,
0.0050000000000000001,-0.1961948573589325,
0.0074999999999999997,-0.18927118182182312,
0.01,-0.17963092029094696,
0.012500000000000001,-0.167658731341362,
0.014999999999999999,-0.14042079448699951,
0.017500000000000002,-0.12741486728191376,
0.02,-0.11606772989034653,
0.022499999999999999,-0.10039329528808594,
0.025000000000000001,-0.096114084124565125,
0.0275,-0.093758106231689453,
0.029999999999999999,-0.092796489596366882,
0.032500000000000001,-0.092796489596366882,
0.035000000000000003,-0.092844568192958832,
0.037499999999999999,-0.092676281929016113,
0.040000000000000001,-0.092219516634941101,
0.042500000000000003,-0.091137692332267761,
0.044999999999999998,-0.090921327471733093,
0.047500000000000001,-0.09123384952545166,
0.050000000000000003,-0.092195473611354828,
0.052499999999999998,-0.096065998077392578,
0.055,-0.098614297807216644,
0.057500000000000002,-0.10121067613363266,
0.059999999999999998,-0.10335028171539307,
0.0625,-0.1045282706618309,
0.065000000000000002,-0.10272523015737534,
0.067500000000000004,-0.099022984504699707,
0.070000000000000007,-0.093421541154384613,
0.072499999999999995,-0.077915392816066742,
0.074999999999999997,-0.069164633750915527,
0.077499999999999999,-0.06075044721364975,
0.080000000000000002,-0.053442120552062988,
0.082500000000000004,-0.044138431549072266,
0.085000000000000006,-0.042551755905151367,
0.087499999999999994,-0.042720042169094086,
0.089999999999999997,-0.044090352952480316,
0.092499999999999999,-0.047888755798339844,
0.095000000000000001,-0.049042701721191406,
0.097500000000000003,-0.049283109605312347,
0.10000000000000001,-0.048634015023708344,
0.10249999999999999,-0.04582127183675766,
0.105,-0.044643282890319824,
0.1075,-0.044210553169250488,
0.11,-0.044643282890319824,
0.1125,-0.046951174736022949,
0.115,-0.047407947480678558,
0.11749999999999999,-0.0461578369140625,
0.12,-0.042239230126142502,
0.1225,-0.024208825081586838,
0.125,-0.010072986595332623,
0.1275,0.0065630674362182617,
0.13,0.024425189942121506,
0.13250000000000001,0.05755305290222168,
0.13500000000000001,0.069693528115749359,
0.13750000000000001,0.07738649845123291,
0.14000000000000001,0.080175206065177917,
0.14249999999999999,0.072289906442165375,
0.14499999999999999,0.063779555261135101,
0.14749999999999999,0.054355662316083908,
0.14999999999999999,0.045773189514875412,
0.1525,0.037166677415370941,
0.155,0.03904183954000473,
0.1575,0.045340459793806076,
0.16,0.055461525917053223,
0.16250000000000001,0.082675419747829437,
0.16500000000000001,0.096691057085990906,
0.16750000000000001,0.10899981111288071,
0.17000000000000001,0.1183275431394577,
0.17249999999999999,0.12517909705638885,
0.17499999999999999,0.12241443246603012,
0.17749999999999999,0.11606772989034653,
0.17999999999999999,0.10690828412771225,
0.1825,0.083516836166381836,
0.185,0.070799395442008972,
0.1875,0.058057904243469238,
0.19,0.045508742332458496,
0.1925,0.020963352173566818,
0.19500000000000001,0.0087507572025060654,
0.19750000000000001,-0.0034858784638345242,
0.20000000000000001,-0.015698473900556564,
0.20250000000000001,-0.039162039756774902,
0.20499999999999999,-0.049787960946559906,
0.20749999999999999,-0.059332054108381271,
0.20999999999999999,-0.067674122750759125,
0.21249999999999999,-0.08132915198802948,
0.215,-0.087339282035827637,
0.2175,-0.093445584177970886,
0.22,-0.10003268718719482,
0.2225,-0.11549075692892075,
0.22500000000000001,-0.12402515113353729,
0.22750000000000001,-0.13243934512138367,
0.23000000000000001,-0.14003615081310272,
0.23250000000000001,-0.1499408483505249,
0.23499999999999999,-0.15131115913391113,
0.23749999999999999,-0.15025338530540466,
0.23999999999999999,-0.14720022678375244,
0.24249999999999999,-0.13868987560272217,
0.245,-0.13537228107452393,
0.2475,-0.13405005633831024,
0.25,-0.1353963315486908,
0.2525,-0.14652709662914276,
0.255,-0.15539805591106415,
0.25750000000000001,-0.16525468230247498,
0.26000000000000001,-0.17494301497936249,
0.26250000000000001,-0.18943946063518524,
0.26500000000000001,-0.19280514121055603,
0.26750000000000002,-0.19323787093162537,
0.27000000000000002,-0.19107422232627869,
0.27250000000000002,-0.18186669051647186,
0.27500000000000002,-0.17672201991081238,
0.27750000000000002,-0.17253896594047546,
0.28000000000000003,-0.1699906587600708,
0.28249999999999997,-0.1713850200176239,
0.28499999999999998,-0.17525553703308105,
0.28749999999999998,-0.18068870902061462,
0.28999999999999998,-0.18705944716930389,
0.29249999999999998,-0.19968073070049286,
0.29499999999999998,-0.20463308691978455,
0.29749999999999999,-0.20804683864116669,
0.29999999999999999,-0.20977775752544403,
0.30249999999999999,-0.20869593322277069,
0.30499999999999999,-0.20665249228477478,
0.3075,-0.20439267158508301,
0.31,-0.20249347388744354,
0.3125,-0.20170013606548309,
0.315,-0.20323872566223145,
0.3175,-0.20593127608299255,
0.32000000000000001,-0.20936906337738037,
0.32250000000000001,-0.2159561812877655,
0.32500000000000001,-0.21783134341239929,
0.32750000000000001,-0.21804770827293396,
0.33000000000000002,-0.21643698215484619,
0.33250000000000002,-0.2084074467420578,
0.33500000000000002,-0.20302236080169678,
0.33750000000000002,-0.1976853609085083,
0.34000000000000002,-0.19318978488445282,
0.34250000000000003,-0.18900673091411591,
0.34499999999999997,-0.1898481547832489,
0.34749999999999998,-0.19251665472984314,
0.34999999999999998,-0.19660353660583496,
0.35249999999999998,-0.20689289271831512,
0.35499999999999998,-0.21203756332397461,
0.35749999999999998,-0.21660527586936951,
0.35999999999999999,-0.22030751407146454,
0.36249999999999999,-0.22475501894950867,
0.36499999999999999,-0.2253800630569458,
0.36749999999999999,-0.22489926218986511,
0.37,-0.22321641445159912,
0.3725,-0.21617254614830017,
0.375,-0.21093170344829559,
0.3775,-0.20494560897350311,
0.38,-0.19871911406517029,
0.38250000000000001,-0.18883845210075378,
0.38500000000000001,-0.18691520392894745,
0.38750000000000001,-0.18806914985179901,
0.39000000000000001,-0.19270896911621094,
0.39250000000000002,-0.21218180656433105,
0.39500000000000002,-0.22571663558483124,
0.39750000000000002,-0.24030923843383789,
0.40000000000000002,-0.25456529855728149,
0.40250000000000002,-0.27704319357872009,
0.40500000000000003,-0.28343796730041504,
0.40749999999999997,-0.28603434562683105,
0.40999999999999998,-0.28507274389266968,
0.41249999999999998,-0.27497571706771851,
0.41499999999999998,-0.26766738295555115,
0.41749999999999998,-0.26009461283683777,
0.41999999999999998,-0.25305074453353882,
0.42249999999999999,-0.24244885146617889,
0.42499999999999999,-0.23922741413116455,
0.42749999999999999,-0.23732821643352509,
0.42999999999999999,-0.23658296465873718,
0.4325,-0.23776094615459442,
0.435,-0.23944377899169922,
0.4375,-0.24167954921722412,
0.44,-0.24446825683116913,
0.4425,-0.25119960308074951,
0.44500000000000001,-0.25475761294364929,
0.44750000000000001,-0.25807520747184753,
0.45000000000000001,-0.26086390018463135,
0.45250000000000001,-0.26358050107955933,
0.45500000000000002,-0.26314777135848999,
0.45750000000000002,-0.26148897409439087,
0.46000000000000002,-0.25877237319946289,
0.46250000000000002,-0.25141596794128418,
0.46500000000000002,-0.24761757254600525,
0.46750000000000003,-0.24427592754364014,
0.46999999999999997,-0.24172763526439667,
0.47249999999999998,-0.23963610827922821,
0.47499999999999998,-0.23999671638011932,
0.47749999999999998,-0.24100641906261444,
0.47999999999999998,-0.2422565221786499,
0.48249999999999998,-0.24398744106292725,
0.48499999999999999,-0.2437470406293869,
0.48749999999999999,-0.24249693751335144,
0.48999999999999999,-0.24021308124065399,
0.49249999999999999,-0.23316919803619385,
0.495,-0.22898614406585693,
0.4975,-0.22482714056968689,
0.5,-0.22105276584625244,
0.50249999999999995,-0.2154032438993454,
0.505,-0.21364828944206238,
0.50749999999999995,-0.21247029304504395,
0.51000000000000001,-0.21162888407707214,
0.51249999999999996,-0.20980179309844971,
0.51500000000000001,-0.20828723907470703,
0.51749999999999996,-0.20605146884918213,
0.52000000000000002,-0.2029983252286911,
0.52249999999999996,-0.1945120096206665,
0.52500000000000002,-0.18924713134765625,
0.52749999999999997,-0.18357357382774353,
0.53000000000000003,-0.17770767211914062,
0.53249999999999997,-0.16640862822532654,
0.53500000000000003,-0.1615043580532074,
0.53749999999999998,-0.15736937522888184,
0.54000000000000004,-0.15422007441520691,
0.54249999999999998,-0.15131115913391113,
0.54500000000000004,-0.15157561004161835,
0.54749999999999999,-0.15287379920482635,
0.55000000000000004,-0.15506148338317871,
0.55249999999999999,-0.16114374995231628,
0.55500000000000005,-0.16453346610069275,
0.5575,-0.16789913177490234,
0.56000000000000005,-0.17114460468292236,
0.5625,-0.17727494239807129,
0.56499999999999995,-0.18037617206573486,
0.5675,-0.18376588821411133,
0.56999999999999995,-0.18754026293754578,
0.57250000000000001,-0.19655546545982361,
0.57499999999999996,-0.20160397887229919,
0.57750000000000001,-0.20667652785778046,
0.57999999999999996,-0.21134039759635925,
0.58250000000000002,-0.2175428569316864,
0.58499999999999996,-0.21816790103912354,
0.58750000000000002,-0.21674951910972595,
0.58999999999999997,-0.21319150924682617,
0.59250000000000003,-0.20093083381652832,
0.59499999999999997,-0.19350230693817139,
0.59750000000000003,-0.18645843863487244,
0.59999999999999998,-0.18100123107433319,
0.60250000000000004,-0.17951071262359619,
0.60499999999999998,-0.185472771525383,
0.60750000000000004,-0.19672374427318573,
0.60999999999999999,-0.21326363086700439,
0.61250000000000004,-0.25958976149559021,
0.61499999999999999,-0.28653919696807861,
0.61750000000000005,-0.31327229738235474,
0.62,-0.33721667528152466,
0.62250000000000005,-0.36522388458251953,
0.625,-0.36358913779258728,
0.62749999999999995,-0.34803491830825806,
0.63,-0.31654179096221924,
0.63249999999999995,-0.20119528472423553,
0.63500000000000001,-0.11746208369731903,
0.63749999999999996,-0.018342932686209679,
0.64000000000000001,0.0930609330534935,
0.64249999999999996,0.3337307870388031,
0.64500000000000002,0.4507601261138916,
0.64749999999999996,0.55627405643463135,
0.65000000000000002,0.64310848712921143,
0.65249999999999997,0.73614537715911865,
0.65500000000000003,0.73388558626174927,
0.65749999999999997,0.69715166091918945,
0.66000000000000003,0.62769854068756104,
0.66249999999999998,0.41037201881408691,
0.66500000000000004,0.27742785215377808,
0.66749999999999998,0.14013230800628662,
0.67000000000000004,0.0075727701187133789,
0.67249999999999999,-0.21268665790557861,
0.67500000000000004,-0.28997701406478882,
0.67749999999999999,-0.34236133098602295,
0.68000000000000005,-0.37070512771606445,
0.6825,-0.36806067824363708,
0.68500000000000005,-0.34656843543052673,
0.6875,-0.31851312518119812,
0.68999999999999995,-0.28858265280723572,
0.6925,-0.23660700023174286,
0.69499999999999995,-0.21821598708629608,
0.69750000000000001,-0.20535430312156677,
0.69999999999999996,-0.19727668166160583,
0.70250000000000001,-0.19013664126396179,
0.70499999999999996,-0.18838167190551758,
0.70750000000000002,-0.18636226654052734,
0.70999999999999996,-0.18350145220756531,
0.71250000000000002,-0.17494301497936249,
0.71499999999999997,-0.16972622275352478,
0.71750000000000003,-0.16446134448051453,
0.71999999999999997,-0.15946090221405029,
0.72250000000000003,-0.15123903751373291,
0.72499999999999998,-0.14806568622589111,
0.72750000000000004,-0.1453731507062912,
0.72999999999999998,-0.14289698004722595,
0.73250000000000004,-0.13801674544811249,
0.73499999999999999,-0.1353963315486908,
0.73750000000000004,-0.13260762393474579,
0.73999999999999999,-0.12977084517478943,
0.74250000000000005,-0.12436171621084213,
0.745,-0.12195765972137451,
0.74750000000000005,-0.11984209716320038,
0.75,-0.11799097061157227,
0.75249999999999995,-0.11479358375072479,
0.755,-0.11325498670339584,
0.75749999999999995,-0.11171638965606689,
0.76000000000000001,-0.11008163541555405,
0.76249999999999996,-0.10659575462341309,
0.76500000000000001,-0.10479271411895752,
0.76749999999999996,-0.10296563804149628,
0.77000000000000002,-0.10111451148986816,
0.77249999999999996,-0.097171865403652191,
0.77500000000000002,-0.094888016581535339,
0.77749999999999997,-0.092243552207946777,
0.78000000000000003,-0.089166365563869476,
0.78249999999999997,-0.081593595445156097,
0.78500000000000003,-0.077194176614284515,
0.78749999999999998,-0.072530314326286316,
0.79000000000000004,-0.067770287394523621,
0.79249999999999998,-0.058562755584716797,
0.79500000000000004,-0.054331623017787933,
0.79749999999999999,-0.050316851586103439,
0.80000000000000004,-0.046518445014953613,
0.80249999999999999,-0.039017796516418457,
0.80500000000000005,-0.035051107406616211,
0.8075,-0.030868053436279297,
0.81000000000000005,-0.026396512985229492,
0.8125,-0.016828378662467003,
0.81499999999999995,-0.011900067329406738,
0.8175,-0.0069717569276690483,
0.81999999999999995,-0.0020194053649902344,
0.82250000000000001,0.0082699460908770561,
0.82499999999999996,0.013967554084956646,
0.82750000000000001,0.020362338051199913,
0.82999999999999996,0.027598541229963303,
0.83250000000000002,0.044859647750854492,
0.83499999999999996,0.054596066474914551,
0.83750000000000002,0.064669057726860046,
0.83999999999999997,0.074573755264282227,
0.84250000000000003,0.091714665293693542,
0.84499999999999997,0.09801328182220459,
0.84750000000000003,0.1023886650800705,
0.84999999999999998,0.10476867854595184,
0.85250000000000004,0.10428786277770996,
0.85499999999999998,0.1021963357925415,
0.85750000000000004,0.099527835845947266,
0.85999999999999999,0.096787214279174805,
0.86250000000000004,0.092580124735832214,
0.86499999999999999,0.091498300433158875,
0.86750000000000005,0.091089606285095215,
0.87,0.091089606285095215,
0.87250000000000005,0.090993449091911316,
0.875,0.090103946626186371,
0.87749999999999995,0.088084541261196136,
0.88,0.07955014705657959,
0.88249999999999995,0.072674557566642761,
0.88500000000000001,0.06394784152507782,
0.88749999999999996,0.053514242172241211,
0.89000000000000001,0.041493974626064301,
0.89249999999999996,0.013943513855338097,
0.89500000000000002,-0.00084141892148181796,
0.89749999999999996,-0.015722513198852539,
0.90000000000000002,-0.030291080474853516,
0.90249999999999997,-0.056879919022321701,
0.90500000000000003,-0.068323217332363129,
0.90749999999999997,-0.078372165560722351,
0.91000000000000003,-0.09443124383687973,
0.91249999999999998,-0.10082602500915527,
0.91500000000000004,-0.10652363300323486,
0.91749999999999998,-0.11181255429983139,
0.92000000000000004,-0.1222461462020874,
0.92249999999999999,-0.1276552677154541,
0.92500000000000004,-0.13318459689617157,
0.92749999999999999,-0.13866584002971649,
0.93000000000000005,-0.148546501994133,
0.9325,-0.15244106948375702,
0.93500000000000005,-0.15532593429088593,
0.9375,-0.15715301036834717,
0.93999999999999995,-0.15780210494995117,
0.9425,-0.15703281760215759,
0.94499999999999995,-0.15595099329948425,
0.94750000000000001,-0.15486916899681091,
0.94999999999999996,-0.15412390232086182,
0.95250000000000001,-0.15434026718139648,
0.95499999999999996,-0.15539805591106415,
0.95750000000000002,-0.1569366455078125,
0.95999999999999996,-0.16035041213035583,
0.96250000000000002,-0.16162455081939697,
0.96499999999999997,-0.16227364540100098,
0.96750000000000003,-0.16210536658763885,
0.96999999999999997,-0.15943686664104462,
0.97250000000000003,-0.15722513198852539,
0.97499999999999998,-0.15479704737663269,
0.97750000000000004,-0.15248915553092957,
0.97999999999999998,-0.14936387538909912,
0.98250000000000004,-0.14885902404785156,
0.98499999999999999,-0.14907538890838623,
0.98750000000000004,-0.14986872673034668,
0.98999999999999999,-0.1521766185760498,
0.99250000000000005,-0.1531141996383667,
0.995,-0.15364310145378113,
0.99750000000000005,-0.15359501540660858,
1,-0.15299400687217712,89.053802490234375
1.0024999999999999,-0.15075823664665222,
1.0049999999999999,-0.14962832629680634,
1.0075000000000001,-0.14883498847484589,
1.01,-0.14907538890838623,
1.0125,-0.15022933483123779,
1.0149999999999999,-0.15191218256950378,
1.0175000000000001,-0.15388350188732147,
1.02,-0.15729725360870361,
1.0225,-0.15804252028465271,
1.0249999999999999,-0.15780210494995117,
1.0275000000000001,-0.15643179416656494,
1.03,-0.15044569969177246,
1.0325,-0.14628669619560242,
1.0349999999999999,-0.14181515574455261,
1.0375000000000001,-0.13746380805969238,
1.04,-0.1306363046169281,
1.0425,-0.12873709201812744,
1.0449999999999999,-0.12801587581634521,
1.0475000000000001,-0.1284005343914032,
1.05,-0.13152579963207245,
1.0525,-0.13352116942405701,
1.0549999999999999,-0.1353001594543457,
1.0575000000000001,-0.13650219142436981,
1.0600000000000001,-0.13635794818401337,
1.0625,-0.13498763740062714,
1.0649999999999999,-0.1329682320356369,
1.0674999999999999,-0.13058821856975555,
1.0700000000000001,-0.1261647641658783,
1.0725,-0.12469828128814697,
1.075,-0.12395302951335907,
1.0774999999999999,-0.1239289864897728,
1.0800000000000001,-0.12546758353710175,
1.0825,-0.12647728621959686,
1.085,-0.12727062404155731,
1.0874999999999999,-0.12760719656944275,
1.0900000000000001,-0.12642920017242432,
1.0925,-0.12498676776885986,
1.095,-0.12315969169139862,
1.0974999999999999,-0.12118836492300034,
1.1000000000000001,-0.11779864877462387,
1.1025,-0.11671682447195053,
1.105,-0.11613985151052475,
1.1074999999999999,-0.1160917729139328,
1.1100000000000001,-0.11717359721660614,
1.1125,-0.11803905665874481,
1.115,-0.11892855167388916,
1.1174999999999999,-0.11972188949584961,
1.1200000000000001,-0.12063543498516083,
1.1225000000000001,-0.12063543498516083,
1.125,-0.12032290548086166,
1.1274999999999999,-0.11964976787567139,
1.1299999999999999,-0.11736591905355453,
1.1325000000000001,-0.11582732200622559,
1.135,-0.11407236754894257,
1.1375,-0.11224528402090073,
1.1399999999999999,-0.10866324603557587,
1.1425000000000001,-0.10714869201183319,
1.145,-0.10597070306539536,
1.1475,-0.10520140826702118,
1.1499999999999999,-0.10493695735931396,
1.1525000000000001,-0.1053696870803833,
1.155,-0.10609090328216553,
1.1575,-0.1069563627243042,
1.1599999999999999,-0.10866324603557587,
1.1625000000000001,-0.10926425457000732,
1.165,-0.10957678407430649,
1.1675,-0.10957678407430649,
1.1699999999999999,-0.1084468811750412,
1.1725000000000001,-0.10729293525218964,
1.175,-0.10573029518127441,
1.1775,-0.10373493283987045,
1.1799999999999999,-0.098229646682739258,
1.1825000000000001,-0.094671651721000671,
1.1850000000000001,-0.090584754943847656,
1.1875,-0.086017057299613953,
1.1899999999999999,-0.07601618766784668,
1.1924999999999999,-0.070991717278957367,
1.1950000000000001,-0.066375933587551117,
1.1975,-0.06245732307434082,
1.2,-0.058057904243469238,
1.2024999999999999,-0.058057904243469238,
1.2050000000000001,-0.059692662209272385,
1.2075,-0.062938138842582703,
1.21,-0.073395773768424988,
1.2124999999999999,-0.07995884120464325,
1.2150000000000001,-0.086810395121574402,
1.2175,-0.093541741371154785,
1.22,-0.10505716502666473,
1.2224999999999999,-0.10936041921377182,
1.2250000000000001,-0.11265397071838379,
1.2275,-0.11498590558767319,
1.23,-0.11789481341838837,
1.2324999999999999,-0.11904875934123993,
1.2350000000000001,-0.12029886245727539,
1.2375,-0.12176533788442612,
1.24,-0.12505888938903809,
1.2424999999999999,-0.12635707855224609,
1.2450000000000001,-0.12695810198783875,
1.2475000000000001,-0.12650132179260254,
1.25,-0.12178938090801239,
1.2524999999999999,-0.11775057017803192,
1.2549999999999999,-0.11320690810680389,
1.2575000000000001,-0.10897576808929443,
1.26,-0.10561009496450424,
1.2625,-0.10863920301198959,
1.2649999999999999,-0.11597156524658203,
1.2675000000000001,-0.12811204791069031,
1.27,-0.1660720556974411,
1.2725,-0.19006451964378357,
1.2749999999999999,-0.21516284346580505,
1.2775000000000001,-0.23901104927062988,
1.28,-0.25886854529380798,
1.2825,-0.27478337287902832,
1.2849999999999999,-0.265095055103302,
1.2875000000000001,-0.24042944610118866,
1.29,-0.1406131237745285,
1.2925,-0.065221987664699554,
1.2949999999999999,0.025314688682556152,
1.2975000000000001,0.12796780467033386,
1.3,0.35111209750175476,
1.3025,0.45975130796432495,
1.3049999999999999,0.55754822492599487,
1.3075000000000001,0.63781958818435669,
1.3100000000000001,0.72299522161483765,
1.3125,0.72032672166824341,
1.3149999999999999,0.68587660789489746,
1.3174999999999999,0.62139987945556641,
1.3200000000000001,0.42066138982772827,
1.3225,0.29805463552474976,
1.325,0.1714811772108078,
1.3274999999999999,0.049114823341369629,
1.3300000000000001,-0.15513360500335693,
1.3325,-0.22742351889610291,
1.335,-0.27706724405288696,
1.3374999999999999,-0.30466577410697937,
1.3400000000000001,-0.30505043268203735,
1.3425,-0.28632283210754395,
1.345,-0.26124855875968933,
1.3474999999999999,-0.23413082957267761,
1.3500000000000001,-0.18650650978088379,
1.3525,-0.16958197951316833,
1.355,-0.15787422657012939,
1.3574999999999999,-0.15071015059947968,
1.3600000000000001,-0.14532506465911865,
1.3625,-0.14441153407096863,
1.365,-0.1432335376739502,
1.3674999999999999,-0.14104585349559784,
1.3700000000000001,-0.132872074842453,
1.3725000000000001,-0.12715041637420654,
1.375,-0.1208517998456955,
1.3774999999999999,-0.11438488960266113,
1.3799999999999999,-0.10246078670024872,
1.3825000000000001,-0.097436308860778809,
1.385,-0.093181133270263672,
1.3875,-0.089719295501708984,
1.3899999999999999,-0.085055433213710785,
1.3925000000000001,-0.083805322647094727,
1.395,-0.083252392709255219,
1.3975,-0.083372592926025391,
1.3999999999999999,-0.085271798074245453,
1.4025000000000001,-0.086714230477809906,
1.405,-0.088180705904960632,
1.4075,-0.089334651827812195,
1.4099999999999999,-0.089454852044582367,
1.4125000000000001,-0.087916254997253418,
1.415,-0.085151597857475281,
1.4175,-0.081232987344264984,
1.4199999999999999,-0.070967674255371094,
1.4225000000000001,-0.065366230905056,
1.425,-0.060053270310163498,
1.4275,-0.055389404296875,
1.4299999999999999,-0.049090784043073654,
1.4325000000000001,-0.04752814769744873,
1.4350000000000001,-0.046855013817548752,
1.4375,-0.046710770577192307,
1.4399999999999999,-0.046566527336835861,
1.4424999999999999,-0.045869350433349609,
1.4450000000000001,-0.044450961053371429,
1.4475,-0.042263269424438477,
1.45,-0.035868488252162933,
1.4524999999999999,-0.032094120979309082,
1.4550000000000001,-0.028319757431745529,
1.4575,-0.024689635261893272,
1.46,-0.018318891525268555,
1.4624999999999999,-0.015434026718139648,
1.4650000000000001,-0.012501081451773643,
1.4675,-0.0091834869235754013,
1.47,-0.00036060810089111328,
1.4724999999999999,0.0055533647537231445,
1.4750000000000001,0.012549161911010742,
1.4775,0.020506581291556358,
1.48,0.03800809383392334,
1.4824999999999999,0.046758852899074554,
1.4850000000000001,0.054932635277509689,
1.4875,0.062216918915510178,
1.49,0.073275566101074219,
1.4924999999999999,0.07709801197052002,
1.4950000000000001,0.080030962824821472,
1.4975000000000001,0.082386933267116547,
1.5,0.086834430694580078,
1.5024999999999999,0.089454852044582367,
1.5049999999999999,0.092508003115653992,
1.5075000000000001,0.095921754837036133,
1.51,0.099503800272941589,
1.5125,0.10587453842163086,
1.5149999999999999,0.10799010843038559,
1.5175000000000001,0.10899981111288071,
1.52,0.10729293525218964,
1.5225,0.10460039228200912,
1.5249999999999999,0.10094623267650604,
1.5275000000000001,0.09654681384563446,
1.53,0.086473822593688965,
1.5325,0.081136822700500488,
1.5349999999999999,0.075727701187133789,
1.5375000000000001,0.070126257836818695,
1.54,0.057937704026699066,
1.5425,0.050965946167707443,
1.5449999999999999,0.043152771890163422,
1.5475000000000001,0.034353934228420258,
1.55,0.013630986213684082,
1.5525,0.0018030405044555664,
1.5549999999999999,-0.010794202797114849,
1.5575000000000001,-0.023896297439932823,
1.5600000000000001,-0.05043705552816391,
1.5625,-0.063226625323295593,
1.5649999999999999,-0.075270935893058777,
1.5674999999999999,-0.086305543780326843,
1.5700000000000001,-0.10464847087860107,
1.5725,-0.11186063289642334,
1.575,-0.11782269179821014,
1.5774999999999999,-0.12267887592315674,
1.5800000000000001,-0.12993912398815155,
1.5825,-0.13277590274810791,
1.585,-0.13542036712169647,
1.5874999999999999,-0.13796865940093994,
1.5900000000000001,-0.14316141605377197,
1.5925,-0.14575779438018799,
1.595,-0.14828205108642578,
1.5974999999999999,-0.15063802897930145,
1.6000000000000001,-0.15422007441520691,
1.6025,-0.15530189871788025,
1.605,-0.15580675005912781,
1.6074999999999999,-0.15578269958496094,
1.6100000000000001,-0.15438835322856903,
1.6125,-0.15325844287872314,
1.615,-0.15205642580986023,
1.6174999999999999,-0.15090247988700867,
1.6200000000000001,-0.14931580424308777,
1.6225000000000001,-0.14907538890838623,
1.625,-0.14921963214874268,
1.6274999999999999,-0.1497485339641571,
1.6299999999999999,-0.15162369608879089,
1.6325000000000001,-0.15270552039146423,
1.635,-0.15373925864696503,
1.6375,-0.1546047180891037,
1.6399999999999999,-0.15542209148406982,
1.6425000000000001,-0.1553499698638916,
1.645,-0.15498936176300049,
1.6475,-0.15441238880157471,
1.6499999999999999,-0.1531141996383667,
1.6525000000000001,-0.15265743434429169,
1.655,-0.15248915553092957,
1.6575,-0.15263339877128601,
1.6599999999999999,-0.15390753746032715,
1.6625000000000001,-0.15486916899681091,
1.665,-0.15583078563213348,
1.6675,-0.15664815902709961,
1.6699999999999999,-0.15698473155498505,
1.6725000000000001,-0.15621542930603027,
1.675,-0.15472492575645447,
1.6775,-0.15253722667694092,
1.6799999999999999,-0.14679154753684998,
1.6825000000000001,-0.14371435344219208,
1.6850000000000001,-0.14087757468223572,
1.6875,-0.13859371840953827,
1.6899999999999999,-0.13640603423118591,
1.6924999999999999,-0.13667047023773193,
1.6950000000000001,-0.1377282589673996,
1.6975,-0.13936302065849304,
1.7,-0.1431373804807663,
1.7024999999999999,-0.14465193450450897,
1.7050000000000001,-0.14556547999382019,
1.7075,-0.14575779438018799,
1.71,-0.14395475387573242,
1.7124999999999999,-0.14224788546562195,
1.7150000000000001,-0.14030060172080994,
1.7175,-0.13830523192882538,
1.72,-0.13501167297363281,
1.7224999999999999,-0.13388177752494812,
1.7250000000000001,-0.13311247527599335,
1.7275,-0.13258358836174011,
1.73,-0.13181428611278534,
1.7324999999999999,-0.13133347034454346,
1.7350000000000001,-0.13070842623710632,
1.7375,-0.129891037940979,
1.74,-0.12784759700298309,
1.7424999999999999,-0.12674173712730408,
1.7450000000000001,-0.12565991282463074,
1.7475000000000001,-0.12462615966796875,
1.75,-0.12277504056692123,
1.7524999999999999,-0.12190958112478256,
1.7549999999999999,-0.12102007865905762,
1.7575000000000001,-0.12013058364391327,
1.76,-0.11825542151927948,
1.7625,-0.11736591905355453,
1.7649999999999999,-0.11659662425518036,
1.7675000000000001,-0.11604368686676025,
1.77,-0.11587540805339813,
1.7725,-0.11630813777446747,
1.7749999999999999,-0.11707743257284164,
1.7775000000000001,-0.11813521385192871,
1.78,-0.12073159217834473,
1.7825,-0.12205382436513901,
1.7849999999999999,-0.12327989190816879,
1.7875000000000001,-0.12433767318725586,
1.79,-0.12570798397064209,
1.7925,-0.12602052092552185,
1.7949999999999999,-0.12602052092552185,
1.7975000000000001,-0.12573203444480896,
1.8,-0.12426555156707764,
1.8025,-0.12301544845104218,
1.8049999999999999,-0.12147685140371323,
1.8075000000000001,-0.11960168927907944,
1.8100000000000001,-0.11513014882802963,
1.8125,-0.11272609233856201,
1.8149999999999999,-0.11037012189626694,
1.8174999999999999,-0.10820647329092026,
1.8200000000000001,-0.10476867854595184,
1.8225,-0.10361473262310028,
1.825,-0.10284543037414551,
1.8274999999999999,-0.10236462205648422,
1.8300000000000001,-0.10197997093200684,
1.8325,-0.10185977071523666,
1.835,-0.10173957049846649,
1.8374999999999999,-0.10161936283111572,
1.8400000000000001,-0.1015472412109375,
1.8425,-0.10171552747488022,
1.845,-0.1021001785993576,
1.8474999999999999,-0.10262906551361084,
1.8500000000000001,-0.10373493283987045,
1.8525,-0.10380705446004868,
1.855,-0.10323008149862289,
1.8574999999999999,-0.10166744887828827,
1.8600000000000001,-0.095056295394897461,
1.8625,-0.090007781982421875,
1.865,-0.084069773554801941,
1.8674999999999999,-0.077747106552124023,
1.8700000000000001,-0.066063404083251953,
1.8725000000000001,-0.061952471733093262,
1.875,-0.059620540589094162,
1.8774999999999999,-0.059428215026855469,
1.8799999999999999,-0.065438352525234222,
1.8825000000000001,-0.071111917495727539,
1.885,-0.077891349792480469,
1.8875,-0.08519967645406723,
1.8899999999999999,-0.099022984504699707,
1.8925000000000001,-0.10464847087860107,
1.895,-0.10914405435323715,
1.8975,-0.11253377050161362,
1.8999999999999999,-0.1169331893324852,
1.9025000000000001,-0.11866410821676254,
1.905,-0.12053927034139633,
1.9075,-0.12279908359050751,
1.9099999999999999,-0.12873709201812744,
1.9125000000000001,-0.13207873702049255,
1.915,-0.13522803783416748,
1.9175,-0.13770422339439392,
1.9199999999999999,-0.13917069137096405,
1.9225000000000001,-0.1376321017742157,
1.925,-0.13467511534690857,
1.9275,-0.1306363046169281,
1.9299999999999999,-0.12198170274496078,
1.9325000000000001,-0.11921703815460205,
1.9350000000000001,-0.11880835145711899,
1.9375,-0.12171725928783417,
1.9399999999999999,-0.1400601863861084,
1.9424999999999999,-0.15583078563213348,
1.9450000000000001,-0.17544786632061005,
1.9475,-0.19792577624320984,
1.95,-0.24466058611869812,
1.9524999999999999,-0.26446998119354248,
1.9550000000000001,-0.27841350436210632,
1.9575,-0.28363031148910522,
1.96,-0.25704145431518555,
1.9624999999999999,-0.2207162082195282,
1.9650000000000001,-0.16717791557312012,
1.9675,-0.096234284341335297,
1.97,0.092075273394584656,
1.9724999999999999,0.20297428965568542,
1.9750000000000001,0.31836888194084167,
1.9775,0.43188831210136414,
1.98,0.62471747398376465,
1.9824999999999999,0.69020390510559082,
1.9850000000000001,0.72746676206588745,
1.9875,0.73294800519943237,
1.99,0.64613759517669678,
1.9924999999999999,0.55899065732955933,
1.9950000000000001,0.45001488924026489,
1.9975000000000001,0.32685518264770508,
2,0.072073541581630707,89.219329833984375
2.0024999999999999,-0.043297015130519867,
2.0049999999999999,-0.14188727736473083,
2.0074999999999998,-0.21961033344268799,
2.0099999999999998,-0.30704578757286072,
2.0125000000000002,-0.31935453414916992,
2.0150000000000001,-0.31514745950698853,
2.0175000000000001,-0.29884797334671021,
2.02,-0.24821858108043671,
2.0225,-0.22167782485485077,
2.0249999999999999,-0.19799789786338806,
2.0274999999999999,-0.17859718203544617,
2.0299999999999998,-0.15381138026714325,
2.0325000000000002,-0.14732043445110321,
2.0350000000000001,-0.14344990253448486,
2.0375000000000001,-0.14116606116294861,
2.04,-0.13799270987510681,
2.0425,-0.13606946170330048,
2.0449999999999999,-0.13366541266441345,
2.0474999999999999,-0.13080458343029022,
2.0499999999999998,-0.12433767318725586,
2.0525000000000002,-0.12109220027923584,
2.0550000000000002,-0.11801501363515854,
2.0575000000000001,-0.11520227044820786,
2.0600000000000001,-0.11029800027608871,
2.0625,-0.10815839469432831,
2.0649999999999999,-0.10613898932933807,
2.0674999999999999,-0.10416766256093979,
2.0699999999999998,-0.10024905204772949,
2.0724999999999998,-0.098253689706325531,
2.0750000000000002,-0.096234284341335297,
2.0775000000000001,-0.094190835952758789,
2.0800000000000001,-0.090200111269950867,
2.0825,-0.088228784501552582,
2.085,-0.086257457733154297,
2.0874999999999999,-0.084214016795158386,
2.0899999999999999,-0.079574190080165863,
2.0924999999999998,-0.076833568513393402,
2.0950000000000002,-0.073780417442321777,
2.0975000000000001,-0.070414744317531586,
2.1000000000000001,-0.063298746943473816,
2.1025,-0.059884987771511078,
2.105,-0.056855879724025726,
2.1074999999999999,-0.054451823234558105,
2.1099999999999999,-0.051783323287963867,
2.1124999999999998,-0.051446758210659027,
2.1150000000000002,-0.051542919129133224,
2.1175000000000002,-0.051735244691371918,
2.1200000000000001,-0.050845742225646973,
2.1225000000000001,-0.049066744744777679,
2.125,-0.046061675995588303,
2.1274999999999999,-0.041830539703369141,
2.1299999999999999,-0.030267041176557541,
2.1324999999999998,-0.023631852120161057,
2.1349999999999998,-0.016996663063764572,
2.1375000000000002,-0.010842284187674522,
2.1400000000000001,-0.0010577838402241468,
2.1425000000000001,0.0023800134658813477,
2.145,0.0050004324875771999,
2.1475,0.0072121620178222656,
2.1499999999999999,0.012044310569763184,
2.1524999999999999,0.015602311119437218,
2.1549999999999998,0.020314257591962814,
2.1575000000000002,0.026300352066755295,
2.1600000000000001,0.041566096246242523,
2.1625000000000001,0.050124526023864746,
2.165,0.058682959526777267,
2.1675,0.066712498664855957,
2.1699999999999999,0.079886719584465027,
2.1724999999999999,0.084718868136405945,
2.1749999999999998,0.08844514936208725,
2.1775000000000002,0.091354057192802429,
2.1800000000000002,0.096114084124565125,
2.1825000000000001,0.098566219210624695,
2.1850000000000001,0.10133087635040283,
2.1875,0.10438402742147446,
2.1899999999999999,0.11063456535339355,
2.1924999999999999,0.11315882205963135,
2.1949999999999998,0.11481761932373047,
2.1974999999999998,0.11532247066497803,
2.2000000000000002,0.11212508380413055,
2.2025000000000001,0.1084468811750412,
2.2050000000000001,0.10356664657592773,
2.2075,0.09767671674489975,
2.21,0.083757244050502777,
2.2124999999999999,0.075992152094841003,
2.2149999999999999,0.067794322967529297,
2.2174999999999998,0.059139728546142578,
2.2200000000000002,0.040340028703212738,
2.2225000000000001,0.030194919556379318,
2.2250000000000001,0.019617080688476562,
2.2275,0.0087988376617431641,
2.23,-0.012837648391723633,
2.2324999999999999,-0.023247202858328819,
2.2349999999999999,-0.033199988305568695,
2.2374999999999998,-0.042599838227033615,
2.2400000000000002,-0.06000518798828125,
2.2425000000000002,-0.068227052688598633,
2.2450000000000001,-0.076328717172145844,
2.2475000000000001,-0.084406338632106781,
2.25,-0.10056158155202866,
2.2524999999999999,-0.10847091674804688,
2.2549999999999999,-0.11601965129375458,
2.2574999999999998,-0.12294332683086395,
2.2599999999999998,-0.13395389914512634,
2.2625000000000002,-0.13770422339439392,
2.2650000000000001,-0.14018039405345917,
2.2675000000000001,-0.14150261878967285,
2.27,-0.1414545476436615,
2.2725,-0.14068524539470673,
2.2749999999999999,-0.13979575037956238,
2.2774999999999999,-0.13905048370361328,
2.2799999999999998,-0.13859371840953827,
2.2825000000000002,-0.13895432651042938,
2.2850000000000001,-0.13962745666503906,
2.2875000000000001,-0.14046888053417206,
2.29,-0.14207959175109863,
2.2925,-0.14258444309234619,
2.2949999999999999,-0.14282485842704773,
2.2974999999999999,-0.14277677237987518,
2.2999999999999998,-0.14203152060508728,
2.3025000000000002,-0.1414545476436615,
2.3050000000000002,-0.14085352420806885,
2.3075000000000001,-0.14022848010063171,
2.3100000000000001,-0.13888220489025116,
2.3125,-0.13813695311546326,
2.3149999999999999,-0.13729552924633026,
2.3174999999999999,-0.13638198375701904,
2.3199999999999998,-0.1346510648727417,
2.3224999999999998,-0.13407409191131592,
2.3250000000000002,-0.1338096559047699,
2.3275000000000001,-0.13405005633831024,
2.3300000000000001,-0.1360454261302948,
2.3325,-0.13768017292022705,
2.335,-0.13953129947185516,
2.3374999999999999,-0.14131030440330505,
2.3399999999999999,-0.14354607462882996,
2.3424999999999998,-0.14347395300865173,
2.3450000000000002,-0.14244019985198975,
2.3475000000000001,-0.14042079448699951,
2.3500000000000001,-0.13419429957866669,
2.3525,-0.13056418299674988,
2.355,-0.12712638080120087,
2.3574999999999999,-0.12421747297048569,
2.3599999999999999,-0.12097200006246567,
2.3624999999999998,-0.12082775682210922,
2.3650000000000002,-0.12152493000030518,
2.3675000000000002,-0.12287120521068573,
2.3700000000000001,-0.12618879973888397,
2.3725000000000001,-0.12753507494926453,
2.375,-0.1284005343914032,
2.3774999999999999,-0.12864093482494354,
2.3799999999999999,-0.12741486728191376,
2.3824999999999998,-0.12621283531188965,
2.3849999999999998,-0.12489061057567596,
2.3875000000000002,-0.12359242141246796,
2.3900000000000001,-0.12145280838012695,
2.3925000000000001,-0.1206594705581665,
2.395,-0.11998634040355682,
2.3975,-0.11933724582195282,
2.3999999999999999,-0.11775057017803192,
2.4024999999999999,-0.11678894609212875,
2.4049999999999998,-0.11575520038604736,
2.4075000000000002,-0.11476954072713852,
2.4100000000000001,-0.11337518692016602,
2.4125000000000001,-0.11315882205963135,
2.415,-0.11330306529998779,
2.4175,-0.1137598380446434,
2.4199999999999999,-0.11510610580444336,
2.4224999999999999,-0.11570712178945541,
2.4249999999999998,-0.11611580848693848,
2.4275000000000002,-0.1161879301071167,
2.4300000000000002,-0.1154426783323288,
2.4325000000000001,-0.11474549770355225,
2.4350000000000001,-0.11397620290517807,
2.4375,-0.11327902972698212,
2.4399999999999999,-0.11246164888143539,
2.4424999999999999,-0.11241357028484344,
2.4449999999999998,-0.11258184909820557,
2.4474999999999998,-0.112918421626091,
2.4500000000000002,-0.11371175944805145,
2.4525000000000001,-0.11400024592876434,
2.4550000000000001,-0.11416852474212646,
2.4575,-0.11416852474212646,
2.46,-0.11371175944805145,
2.4624999999999999,-0.11330306529998779,
2.4649999999999999,-0.11279821395874023,
2.4674999999999998,-0.11224528402090073,
2.4700000000000002,-0.11106729507446289,
2.4725000000000001,-0.11049032211303711,
2.4750000000000001,-0.10996143519878387,
2.4775,-0.10945658385753632,
2.48,-0.10861515998840332,
2.4824999999999999,-0.10832667350769043,
2.4849999999999999,-0.10808627307415009,
2.4874999999999998,-0.10786990821361542,
2.4900000000000002,-0.10743717849254608,
2.4925000000000002,-0.10707657039165497,
2.4950000000000001,-0.10654767602682114,
2.4975000000000001,-0.10580241680145264,
2.5,-0.10351856797933578,
2.5024999999999999,-0.10200401395559311,
2.5049999999999999,-0.10032117366790771,
2.5074999999999998,-0.098566219210624695,
2.5099999999999998,-0.095224581658840179,
2.5125000000000002,-0.093878313899040222,
2.5150000000000001,-0.092916689813137054,
2.5175000000000001,-0.092363759875297546,
2.52,-0.092604160308837891,
2.5225,-0.093229219317436218,
2.5249999999999999,-0.094022557139396667,
2.5274999999999999,-0.094839930534362793,
2.5299999999999998,-0.095657311379909515,
2.5325000000000002,-0.095296703279018402,
2.5350000000000001,-0.094190835952758789,
2.5375000000000001,-0.092219516634941101,
2.54,-0.085704527795314789,
2.5425,-0.081232987344264984,
2.5449999999999999,-0.076184473931789398,
2.5474999999999999,-0.070751309394836426,
2.5499999999999998,-0.059909027069807053,
2.5525000000000002,-0.055100917816162109,
2.5550000000000002,-0.051086150109767914,
2.5575000000000001,-0.048105120658874512,
2.5600000000000001,-0.045893393456935883,
2.5625,-0.046782892197370529,
2.5649999999999999,-0.048970580101013184,
2.5674999999999999,-0.052336256951093674,
2.5699999999999998,-0.061952471733093262,
2.5724999999999998,-0.067770287394523621,
2.5750000000000002,-0.073996782302856445,
2.5775000000000001,-0.080415606498718262,
2.5800000000000001,-0.093157097697257996,
2.5825,-0.099143192172050476,
2.585,-0.1047205924987793,
2.5874999999999999,-0.10974507033824921,
2.5899999999999999,-0.11799097061157227,
2.5924999999999998,-0.12109220027923584,
2.5950000000000002,-0.12349625676870346,
2.5975000000000001,-0.12515506148338318,
2.6000000000000001,-0.12614071369171143,
2.6025,-0.1254194974899292,
2.605,-0.12378474324941635,
2.6074999999999999,-0.12128452956676483,
2.6099999999999999,-0.1139521598815918,
2.6124999999999998,-0.10962486267089844,
2.6150000000000002,-0.10551393032073975,
2.6175000000000002,-0.10226845741271973,
2.6200000000000001,-0.10181169211864471,
2.6225000000000001,-0.10633131116628647,
2.625,-0.11503398418426514,
2.6274999999999999,-0.12830436229705811,
2.6299999999999999,-0.16782701015472412,
2.6324999999999998,-0.19239644706249237,
2.6349999999999998,-0.21809577941894531,
2.6375000000000002,-0.24268925189971924,
2.6400000000000001,-0.27762016654014587,
2.6425000000000001,-0.28204363584518433,
2.645,-0.27389389276504517,
2.6475,-0.25076687335968018,
2.6499999999999999,-0.15309016406536102,
2.6524999999999999,-0.077747106552124023,
2.6549999999999998,0.013775229454040527,
2.6575000000000002,0.11871218681335449,
2.6600000000000001,0.35094380378723145,
2.6625000000000001,0.46643456816673279,
2.665,0.572357177734375,
2.6675,0.66169184446334839,
2.6699999999999999,0.76590758562088013,
2.6724999999999999,0.77198982238769531,
2.6749999999999998,0.74501633644104004,
2.6775000000000002,0.68616509437561035,
2.6800000000000002,0.48987409472465515,
2.6825000000000001,0.36582490801811218,
2.6850000000000001,0.23547708988189697,
2.6875,0.10741313546895981,
2.6899999999999999,-0.11207699775695801,
2.6924999999999999,-0.19278109073638916,
2.6949999999999998,-0.25055050849914551,
2.6974999999999998,-0.28550547361373901,
2.7000000000000002,-0.29694876074790955,
2.7025000000000001,-0.28156280517578125,
2.7050000000000001,-0.25838774442672729,
2.7075,-0.23187100887298584,
2.71,-0.18273214995861053,
2.7124999999999999,-0.16431710124015808,
2.7149999999999999,-0.15102267265319824,
2.7174999999999998,-0.14248828589916229,
2.7200000000000002,-0.1353963315486908,
2.7225000000000001,-0.13429045677185059,
2.7250000000000001,-0.13325671851634979,
2.7275,-0.13150176405906677,
2.73,-0.12438575923442841,
2.7324999999999999,-0.11912088096141815,
2.7349999999999999,-0.11320690810680389,
2.7374999999999998,-0.10710060596466064,
2.7400000000000002,-0.096210241317749023,
2.7425000000000002,-0.092099308967590332,
2.7450000000000001,-0.089166365563869476,
2.7475000000000001,-0.087387368083000183,
2.75,-0.086714230477809906,
2.7524999999999999,-0.087219081819057465,
2.7549999999999999,-0.087796054780483246,
2.7574999999999998,-0.088036462664604187,
2.7599999999999998,-0.08628150075674057,
2.7625000000000002,-0.083877444267272949,
2.7650000000000001,-0.080463692545890808,
2.7675000000000001,-0.076232552528381348,
2.77,-0.066616341471672058,
2.7725,-0.062096714973449707,
2.7749999999999999,-0.058346390724182129,
2.7774999999999999,-0.055629812180995941,
2.7799999999999998,-0.053682528436183929,
2.7825000000000002,-0.054163336753845215,
2.7850000000000001,-0.055100917816162109,
2.7875000000000001,-0.056038498878479004,
2.79,-0.055942337960004807,
2.7925,-0.054235458374023438,
2.7949999999999999,-0.051254432648420334,
2.7974999999999999,-0.047119460999965668,
2.7999999999999998,-0.036806069314479828,
2.8025000000000002,-0.031541191041469574,
2.8050000000000002,-0.026853283867239952,
2.8075000000000001,-0.023054879158735275,
2.8100000000000001,-0.018583338707685471,
2.8125,-0.017621716484427452,
2.8149999999999999,-0.017044743523001671,
2.8174999999999999,-0.016395648941397667,
2.8199999999999998,-0.013054013252258301,
2.8224999999999998,-0.0096642971038818359,
2.8250000000000002,-0.0049523515626788139,
2.8275000000000001,0.0010097026824951172,
2.8300000000000001,0.015602311119437218,
2.8325,0.023487608879804611,
2.835,0.03122866153717041,
2.8374999999999999,0.038512945175170898,
2.8399999999999999,0.051062107086181641,
2.8424999999999998,0.056254863739013672,
2.8450000000000002,0.060894690454006195,
2.8475000000000001,0.065173909068107605,
2.8500000000000001,0.073612138628959656,
2.8525,0.07808367908000946,
2.855,0.082891784608364105,
2.8574999999999999,0.088012419641017914,
2.8599999999999999,0.098974905908107758,
2.8624999999999998,0.1045282706618309,
2.8650000000000002,0.1099373921751976,
2.8675000000000002,0.11503398418426514,
2.8700000000000001,0.12371262162923813,
2.8725000000000001,0.12707829475402832,
2.875,0.12967467308044434,
2.8774999999999999,0.1314777135848999,
2.8799999999999999,0.13263165950775146,
2.8824999999999998,0.13198256492614746,
2.8849999999999998,0.13058821856975555,
2.8875000000000002,0.12842456996440887,
2.8900000000000001,0.12202978134155273,
2.8925000000000001,0.11779864877462387,
2.895,0.11287033557891846,
2.8975,0.10717272758483887,
2.8999999999999999,0.093301340937614441,
2.9024999999999999,0.085007354617118835,
2.9049999999999998,0.075751744210720062,
2.9075000000000002,0.065558552742004395,
2.9100000000000001,0.042695999145507812,
2.9125000000000001,0.03031512163579464,
2.915,0.017597675323486328,
2.9175,0.004832148551940918,
2.9199999999999999,-0.019881527870893478,
2.9224999999999999,-0.031372904777526855,
2.9249999999999998,-0.042094986885786057,
2.9275000000000002,-0.051927566528320312,
2.9300000000000002,-0.068996354937553406,
2.9325000000000001,-0.076352760195732117,
2.9350000000000001,-0.083036027848720551,
2.9375,-0.089166365563869476,
2.9399999999999999,-0.099936529994010925,
2.9424999999999999,-0.10464847087860107,
2.9449999999999998,-0.10890364646911621,
2.9474999999999998,-0.11270205676555634,
2.9500000000000002,-0.11880835145711899,
2.9525000000000001,-0.12114028632640839,
2.9550000000000001,-0.12303948402404785,
2.9575,-0.12453000247478485,
2.96,-0.12664556503295898,
2.9624999999999999,-0.12734274566173553,
2.9649999999999999,-0.12784759700298309,
2.9674999999999998,-0.12820820510387421,
2.9700000000000002,-0.1284005343914032,
2.9725000000000001,-0.12825629115104675,
2.9750000000000001,-0.12794375419616699,
2.9775,-0.1274629533290863,
2.98,-0.12618879973888397,
2.9824999999999999,-0.12549161911010742,
2.9849999999999999,-0.12484252452850342,
2.9874999999999998,-0.12431363761425018,
2.9900000000000002,-0.12388090789318085,
2.9925000000000002,-0.12407322973012924,
2.9950000000000001,-0.12453000247478485,
2.9975000000000001,-0.12527525424957275,
3,-0.12748698890209198,89.219329833984375
3.0024999999999999,-0.12885729968547821,
3.0049999999999999,-0.13027569651603699,
3.0074999999999998,-0.13167004287242889,
3.0099999999999998,-0.13405005633831024,
3.0125000000000002,-0.13484339416027069,
3.0150000000000001,-0.13527612388134003,
3.0175000000000001,-0.1353001594543457,
3.02,-0.13407409191131592,
3.0225,-0.132872074842453,
3.0249999999999999,-0.13140559196472168,
3.0274999999999999,-0.12977084517478943,
3.0299999999999998,-0.12654940783977509,
3.0325000000000002,-0.1252271831035614,
3.0350000000000001,-0.12424151599407196,
3.0375000000000001,-0.12368857860565186,
3.04,-0.1238328218460083,
3.0425,-0.12443383783102036,
3.0449999999999999,-0.1252271831035614,
3.0474999999999999,-0.12609264254570007,
3.0499999999999998,-0.12739083170890808,
3.0525000000000002,-0.12758314609527588,
3.0550000000000002,-0.12739083170890808,
3.0575000000000001,-0.12676577270030975,
3.0600000000000001,-0.12445788085460663,
3.0625,-0.1229914054274559,
3.0649999999999999,-0.12145280838012695,
3.0674999999999999,-0.11996229737997055,
3.0699999999999998,-0.11751016229391098,
3.0724999999999998,-0.11654853820800781,
3.0750000000000002,-0.11573116481304169,
3.0775000000000001,-0.11496186256408691,
3.0800000000000001,-0.11313478648662567,
3.0825,-0.11193275451660156,
3.085,-0.11053840816020966,
3.0874999999999999,-0.10899981111288071,
3.0899999999999999,-0.10597070306539536,
3.0924999999999998,-0.10484080016613007,
3.0950000000000002,-0.10416766256093979,
3.0975000000000001,-0.10399937629699707,
3.1000000000000001,-0.10522544384002686,
3.1025,-0.10635535418987274,
3.105,-0.10753333568572998,
3.1074999999999999,-0.1085430383682251,
3.1099999999999999,-0.10933637619018555,
3.1124999999999998,-0.10890364646911621,
3.1150000000000002,-0.10794202983379364,
3.1175000000000002,-0.10661979764699936,
3.1200000000000001,-0.10366281121969223,
3.1225000000000001,-0.10243674367666245,
3.125,-0.10161936283111572,
3.1274999999999999,-0.10121067613363266,
3.1299999999999999,-0.1015472412109375,
3.1324999999999998,-0.10202805697917938,
3.1349999999999998,-0.10250886529684067,
3.1375000000000002,-0.10284543037414551,
3.1400000000000001,-0.10267715156078339,
3.1425000000000001,-0.10217230021953583,
3.145,-0.10147511959075928,
3.1475,-0.10065774619579315,
3.1499999999999999,-0.098998948931694031,
3.1524999999999999,-0.09830176830291748,
3.1549999999999998,-0.097652673721313477,
3.1575000000000002,-0.097075700759887695,
3.1600000000000001,-0.095921754837036133,
3.1625000000000001,-0.095320746302604675,
3.165,-0.094719730317592621,
3.1675,-0.094190835952758789,
3.1699999999999999,-0.093661949038505554,
3.1724999999999999,-0.093830227851867676,
3.1749999999999998,-0.094335079193115234,
3.1775000000000002,-0.095152460038661957,
3.1800000000000002,-0.097243987023830414,
3.1825000000000001,-0.098229646682739258,
3.1850000000000001,-0.098878741264343262,
3.1875,-0.099071070551872253,
3.1899999999999999,-0.097652673721313477,
3.1924999999999999,-0.095969840884208679,
3.1949999999999998,-0.093734070658683777,
3.1974999999999998,-0.091017484664916992,
3.2000000000000002,-0.084766946732997894,
3.2025000000000001,-0.081497430801391602,
3.2050000000000001,-0.078276000916957855,
3.2075,-0.075270935893058777,
3.21,-0.070126257836818695,
3.2124999999999999,-0.068227052688598633,
3.2149999999999999,-0.066928863525390625,
3.2174999999999998,-0.066327854990959167,
3.2200000000000002,-0.067529879510402679,
3.2225000000000001,-0.069332920014858246,
3.2250000000000001,-0.071761012077331543,
3.2275,-0.074573755264282227,
3.23,-0.079862676560878754,
3.2324999999999999,-0.081449352204799652,
3.2349999999999999,-0.081737838685512543,
3.2374999999999998,-0.080415606498718262,
3.2400000000000002,-0.072289906442165375,
3.2425000000000002,-0.06565471738576889,
3.2450000000000001,-0.057745378464460373,
3.2475000000000001,-0.049042701721191406,
3.25,-0.031877756118774414,
3.2524999999999999,-0.024641554802656174,
3.2549999999999999,-0.018992027267813683,
3.2574999999999998,-0.015313824638724327,
3.2599999999999998,-0.014328162185847759,
3.2625000000000002,-0.016876459121704102,
3.2650000000000001,-0.021155675873160362,
3.2675000000000001,-0.026805203408002853,
3.27,-0.040772758424282074,
3.2725,-0.048345528542995453,
3.2749999999999999,-0.055870216339826584,
3.2774999999999999,-0.063034296035766602,
3.2799999999999998,-0.075559422373771667,
3.2825000000000002,-0.08058389276266098,
3.2850000000000001,-0.084646746516227722,
3.2875000000000001,-0.087747976183891296,
3.29,-0.091257892549037933,
3.2925,-0.091882944107055664,
3.2949999999999999,-0.09197910875082016,
3.2974999999999999,-0.09164254367351532,
3.2999999999999998,-0.090007781982421875,
3.3025000000000002,-0.08873363584280014,
3.3050000000000002,-0.08702675998210907,
3.3075000000000001,-0.08486311137676239,
3.3100000000000001,-0.079141460359096527,
3.3125,-0.075920030474662781,
3.3149999999999999,-0.073011122643947601,
3.3174999999999999,-0.07101576030254364,
3.3199999999999998,-0.07317940890789032,
3.3224999999999998,-0.079021260142326355,
3.3250000000000002,-0.088998079299926758,
3.3275000000000001,-0.10339836776256561,
3.3300000000000001,-0.14460384845733643,
3.3325,-0.16943773627281189,
3.335,-0.19487261772155762,
3.3374999999999999,-0.2184804379940033,
3.3399999999999999,-0.24901191890239716,
3.3424999999999998,-0.2499014139175415,
3.3450000000000002,-0.23742437362670898,
3.3475000000000001,-0.20917674899101257,
3.3500000000000001,-0.10008077323436737,
3.3525,-0.019136270508170128,
3.355,0.077314376831054688,
3.3574999999999999,0.18597762286663055,
3.3599999999999999,0.4198920726776123,
3.3624999999999998,0.53252202272415161,
3.3650000000000002,0.63291531801223755,
3.3675000000000002,0.71410024166107178,
3.3700000000000001,0.79588615894317627,
3.3725000000000001,0.78917884826660156,
3.375,0.74958407878875732,
3.3774999999999999,0.67928951978683472,
3.3799999999999999,0.46715578436851501,
3.3824999999999998,0.33990919589996338,
3.3849999999999998,0.20980179309844971,
3.3875000000000002,0.085151597857475281,
3.3900000000000001,-0.12032290548086166,
3.3925000000000001,-0.19203583896160126,
3.395,-0.24069389700889587,
3.3975,-0.26725870370864868,
3.3999999999999999,-0.26620090007781982,
3.4024999999999999,-0.24720887839794159,
3.4049999999999998,-0.22206246852874756,
3.4075000000000002,-0.19496878981590271,
3.4100000000000001,-0.1469598263502121,
3.4125000000000001,-0.12941023707389832,
3.415,-0.11669278144836426,
3.4175,-0.10825455188751221,
3.4199999999999999,-0.099912486970424652,
3.4224999999999999,-0.09767671674489975,
3.4249999999999998,-0.095440946519374847,
3.4275000000000002,-0.092604160308837891,
3.4300000000000002,-0.08445441722869873,
3.4325000000000001,-0.079429946839809418,
3.4350000000000001,-0.074189111590385437,
3.4375,-0.069092512130737305,
3.4399999999999999,-0.060606203973293304,
3.4424999999999999,-0.05755305290222168,
3.4449999999999998,-0.055293243378400803,
3.4474999999999998,-0.053778689354658127,
3.4500000000000002,-0.052216053009033203,
3.4525000000000001,-0.051735244691371918,
3.4550000000000001,-0.051182311028242111,
3.4575,-0.050316851586103439,
3.46,-0.047167539596557617,
3.4624999999999999,-0.044715404510498047,
3.4649999999999999,-0.041734378784894943,
3.4674999999999998,-0.03829658031463623,
3.4700000000000002,-0.030747851356863976,
3.4725000000000001,-0.02706964872777462,
3.4750000000000001,-0.023679932579398155,
3.4775,-0.020819108933210373,
3.48,-0.016972621902823448,
3.4824999999999999,-0.015986960381269455,
3.4849999999999999,-0.015458067879080772,
3.4874999999999998,-0.015265743248164654,
3.4900000000000002,-0.014833013527095318,
3.4925000000000002,-0.014159878715872765,
3.4950000000000001,-0.012933811172842979,
3.4975000000000001,-0.01105864904820919,
3.5,-0.0050485134124755859,
3.5024999999999999,-0.0010097026824951172,
3.5049999999999999,0.0035820405464619398,
3.5074999999999998,0.0085584325715899467,
3.5099999999999998,0.019016068428754807,
3.5125000000000002,0.024136703461408615,
3.5150000000000001,0.029040973633527756,
3.5175000000000001,0.033584635704755783,
3.52,0.041518013924360275,
3.5225,0.044979851692914963,
3.5249999999999999,0.04827340692281723,
3.5274999999999999,0.051494836807250977,
3.5299999999999998,0.058466594666242599,
3.5325000000000002,0.062481366097927094,
3.5350000000000001,0.067025028169155121,
3.5375000000000001,0.07209758460521698,
3.54,0.083661079406738281,
3.5425,0.089911624789237976,
3.5449999999999999,0.096282362937927246,
3.5474999999999999,0.10260502994060516,
3.5499999999999998,0.11448105424642563,
3.5525000000000002,0.11986613273620605,
3.5550000000000002,0.12486656755208969,
3.5575000000000001,0.12955448031425476,
3.5600000000000001,0.13835331797599792,
3.5625,0.14268061518669128,
3.5649999999999999,0.14708003401756287,
3.5674999999999999,0.15155157446861267,
3.5699999999999998,0.16039848327636719,
3.5724999999999998,0.16450941562652588,
3.5750000000000002,0.16813954710960388,
3.5775000000000001,0.17104844748973846,
3.5800000000000001,0.1738131046295166,
3.5825,0.17333230376243591,
3.585,0.17150521278381348,
3.5874999999999999,0.16828379034996033,
3.5899999999999999,0.15794634819030762,
3.5924999999999998,0.15107075870037079,
3.5950000000000002,0.14325758814811707,
3.5975000000000001,0.1346510648727417,
3.6000000000000001,0.11561095714569092,
3.6025,0.10541777312755585,
3.605,0.094839930534362793,
3.6074999999999999,0.083973608911037445,
3.6099999999999999,0.061663985252380371,
3.6124999999999998,0.050388973206281662,
3.6150000000000002,0.039162039756774902,
3.6175000000000002,0.028175514191389084,
3.6200000000000001,0.0075246891938149929,
3.6225000000000001,-0.0018751621246337891,
3.625,-0.010529756546020508,
3.6274999999999999,-0.018391013145446777,
3.6299999999999999,-0.032094120979309082,
3.6324999999999998,-0.038176380097866058,
3.6349999999999998,-0.04399418830871582,
3.6375000000000002,-0.049667757004499435,
3.6400000000000001,-0.061062972992658615,
3.6425000000000001,-0.066832706332206726,
3.645,-0.072554349899291992,
3.6475,-0.083132192492485046,
3.6499999999999999,-0.087651811540126801,
3.6524999999999999,-0.091426178812980652,
3.6549999999999998,-0.094383165240287781,
3.6575000000000002,-0.096498727798461914,
3.6600000000000001,-0.098542176187038422,
3.6625000000000001,-0.098806619644165039,
3.665,-0.098806619644165039,
3.6675,-0.098782584071159363,
3.6699999999999999,-0.098998948931694031,
3.6724999999999999,-0.099407635629177094,
3.6749999999999998,-0.10000865161418915,
3.6775000000000002,-0.10072986781597137,
3.6800000000000002,-0.10197997093200684,
3.6825000000000001,-0.10226845741271973,
3.6850000000000001,-0.10222037881612778,
3.6875,-0.10097026824951172,
3.6899999999999999,-0.099840365350246429,
3.6924999999999999,-0.098518133163452148,
3.6949999999999998,-0.097147822380065918,
3.6974999999999998,-0.094839930534362793,
3.7000000000000002,-0.094214878976345062,
3.7025000000000001,-0.09409467875957489,
3.7050000000000001,-0.094455286860466003,
3.7075,-0.095320746302604675,
3.71,-0.09796520322561264,
3.7124999999999999,-0.09938359260559082,
3.7149999999999999,-0.10060966014862061,
3.7174999999999998,-0.10142704099416733,
3.7200000000000002,-0.10147511959075928,
3.7225000000000001,-0.10065774619579315,
3.7250000000000001,-0.099407635629177094,
3.7275,-0.096330448985099792,
3.73,-0.094936095178127289,
3.7324999999999999,-0.093878313899040222,
3.7349999999999999,-0.093277297914028168,
3.7374999999999998,-0.093373462557792664,
3.7400000000000002,-0.093806192278862,
3.7425000000000002,-0.094238921999931335,
3.7450000000000001,-0.09443124383687973,
3.7475000000000001,-0.093469619750976562,
3.75,-0.092171430587768555,
3.7524999999999999,-0.090368390083312988,
3.7549999999999999,-0.088228784501552582,
3.7574999999999998,-0.086017057299613953,
3.7599999999999998,-0.082218647003173828,
3.7625000000000002,-0.081040665507316589,
3.7650000000000001,-0.080463692545890808,
3.7675000000000001,-0.080968543887138367,
3.77,-0.081785917282104492,
3.7725,-0.082723498344421387,
3.7749999999999999,-0.083540879189968109,
3.7774999999999999,-0.084238052368164062,
3.7799999999999998,-0.083877444267272949,
3.7825000000000002,-0.0830841064453125,
3.7850000000000001,-0.081930160522460938,
3.7875000000000001,-0.078973174095153809,
3.79,-0.077482663094997406,
3.7925,-0.076184473931789398,
3.7949999999999999,-0.075174771249294281,
3.7974999999999999,-0.074189111590385437,
3.7999999999999998,-0.074165068566799164,
3.8025000000000002,-0.074405476450920105,
3.8050000000000002,-0.074790120124816895,
3.8075000000000001,-0.075703665614128113,
3.8100000000000001,-0.076088309288024902,
3.8125,-0.07630467414855957,
3.8149999999999999,-0.076352760195732117,
3.8174999999999999,-0.075799822807312012,
3.8199999999999998,-0.07522284984588623,
3.8224999999999998,-0.074477598071098328,
3.8250000000000002,-0.073612138628959656,
3.8275000000000001,-0.072674557566642761,
3.8300000000000001,-0.070967674255371094,
3.8325,-0.070342622697353363,
3.835,-0.070006057620048523,
3.8374999999999999,-0.07031857967376709,
3.8399999999999999,-0.070919595658779144,
3.8424999999999998,-0.071736976504325867,
3.8450000000000002,-0.072626471519470215,
3.8475000000000001,-0.073972746729850769,
3.8500000000000001,-0.074141025543212891,
3.8525,-0.073828503489494324,
3.855,-0.073011122643947601,
3.8574999999999999,-0.071809098124504089,
3.8599999999999999,-0.06885211169719696,
3.8624999999999998,-0.067553922533988953,
3.8650000000000002,-0.06673654168844223,
3.8675000000000002,-0.067025028169155121,
3.8700000000000001,-0.068227052688598633,
3.8725000000000001,-0.069957971572875977,
3.875,-0.072025462985038757,
3.8774999999999999,-0.075799822807312012,
3.8799999999999999,-0.076833568513393402,
3.8824999999999998,-0.077001854777336121,
3.8849999999999998,-0.076136395335197449,
3.8875000000000002,-0.071592733263969421,
3.8900000000000001,-0.068323217332363129,
3.8925000000000001,-0.064837336540222168,
3.895,-0.061519742012023926,
3.8975,-0.056687593460083008,
3.8999999999999999,-0.055629812180995941,
3.9024999999999999,-0.055581729859113693,
3.9049999999999998,-0.056447189301252365,
3.9075000000000002,-0.059860944747924805,
3.9100000000000001,-0.061760149896144867,
3.9125000000000001,-0.063322782516479492,
3.915,-0.064260363578796387,
3.9175,-0.063274703919887543,
3.9199999999999999,-0.06120721623301506,
3.9224999999999999,-0.058130025863647461,
3.9249999999999998,-0.054163336753845215,
3.9275000000000002,-0.044402878731489182,
3.9300000000000002,-0.039162039756774902,
3.9325000000000001,-0.033993326127529144,
3.9350000000000001,-0.0292332973331213,
3.9375,-0.021900933235883713,
3.9399999999999999,-0.019809406250715256,
3.9424999999999999,-0.019016068428754807,
3.9449999999999998,-0.01966516301035881,
3.9474999999999998,-0.025434892624616623,
3.9500000000000002,-0.030387243255972862,
3.9525000000000001,-0.036469500511884689,
3.9550000000000001,-0.043321054428815842,
3.9575,-0.057865582406520844,
3.96,-0.064693093299865723,
3.9624999999999999,-0.070775352418422699,
3.9649999999999999,-0.075823865830898285,
3.9674999999999998,-0.082531176507472992,
3.9700000000000002,-0.084310173988342285,
3.9725000000000001,-0.085343919694423676,
3.9750000000000001,-0.085920892655849457,
3.9775,-0.08628150075674057,
3.98,-0.087122917175292969,
3.9824999999999999,-0.087675854563713074,
3.9849999999999999,-0.088156662881374359,
3.9874999999999998,-0.087892219424247742,
3.9900000000000002,-0.086690187454223633,
3.9925000000000002,-0.084598660469055176,
3.9950000000000001,-0.081737838685512543,
3.9975000000000001,-0.075463257730007172,
4,-0.073491930961608887,88.607589721679688
4.0025000000000004,-0.073588095605373383,
4.0049999999999999,-0.07671336829662323,
4.0075000000000003,-0.095272660255432129,
4.0099999999999998,-0.11145194619894028,
4.0125000000000002,-0.13181428611278534,
4.0149999999999997,-0.1553499698638916,
4.0175000000000001,-0.20444075763225555,
4.0199999999999996,-0.22487521171569824,
4.0225,-0.23855428397655487,
4.0250000000000004,-0.24223248660564423,
4.0274999999999999,-0.20811896026134491,
4.0300000000000002,-0.16595184803009033,
4.0324999999999998,-0.10575433820486069,
4.0350000000000001,-0.028007229790091515,
4.0374999999999996,0.17102441191673279,
4.04,0.28418323397636414,
4.0425000000000004,0.39892873167991638,
4.0449999999999999,0.50855362415313721,
4.0475000000000003,0.68457841873168945,
4.0499999999999998,0.73833310604095459,
4.0525000000000002,0.76283037662506104,
4.0549999999999997,0.75566631555557251,
4.0575000000000001,0.71664851903915405,
4.0599999999999996,0.55437487363815308,
4.0625,0.44203341007232666,
4.0650000000000004,0.31868141889572144,
4.0674999999999999,0.071736976504325867,
4.0700000000000003,-0.036854147911071777,
4.0724999999999998,-0.12775143980979919,
4.0750000000000002,-0.19754111766815186,
4.0774999999999997,-0.27072054147720337,
4.0800000000000001,-0.27740380167961121,
4.0824999999999996,-0.26874920725822449,
4.085,-0.24918019771575928,
4.0875000000000004,-0.1952572762966156,
4.0899999999999999,-0.1684039831161499,
4.0925000000000002,-0.14518082141876221,
4.0949999999999998,-0.12686192989349365,
4.0975000000000001,-0.10563413798809052,
4.0999999999999996,-0.10128279775381088,
4.1025,-0.099575921893119812,
4.1050000000000004,-0.099215313792228699,
4.1074999999999999,-0.098494097590446472,
4.1100000000000003,-0.096835300326347351,
4.1124999999999998,-0.094022557139396667,
4.1150000000000002,-0.090176068246364594,
4.1174999999999997,-0.080656014382839203,
4.1200000000000001,-0.075727701187133789,
4.1224999999999996,-0.071135960519313812,
4.125,-0.067049071192741394,
4.1275000000000004,-0.06075044721364975,
4.1299999999999999,-0.058346390724182129,
4.1325000000000003,-0.056254863739013672,
4.1349999999999998,-0.05430757999420166,
4.1375000000000002,-0.050388973206281662,
4.1399999999999997,-0.048297446221113205,
4.1425000000000001,-0.046181879937648773,
4.1449999999999996,-0.044090352952480316,
4.1475,-0.040412150323390961,
4.1500000000000004,-0.03892163559794426,
4.1524999999999999,-0.037599407136440277,
4.1550000000000002,-0.036397378891706467,
4.1574999999999998,-0.033656757324934006,
4.1600000000000001,-0.031805634498596191,
4.1624999999999996,-0.029497742652893066,
4.165,-0.026709040626883507,
4.1675000000000004,-0.020025771111249924,
4.1699999999999999,-0.016539892181754112,
4.1725000000000003,-0.013270378112792969,
4.1749999999999998,-0.010433594696223736,
4.1775000000000002,-0.0065390272065997124,
4.1799999999999997,-0.0054091215133666992,
4.1825000000000001,-0.0046398243866860867,
4.1849999999999996,-0.0038945674896240234,
4.1875,-0.0013703107833862305,
4.1900000000000004,0.00091354054166004062,
4.1924999999999999,0.0040868921205401421,
4.1950000000000003,0.0081016626209020615,
4.1974999999999998,0.017886161804199219,
4.2000000000000002,0.023102959617972374,
4.2024999999999997,0.028175514191389084,
4.2050000000000001,0.032815337181091309,
4.2074999999999996,0.040556393563747406,
4.21,0.043753784149885178,
4.2125000000000004,0.046782892197370529,
4.2149999999999999,0.049884121865034103,
4.2175000000000002,0.057480931282043457,
4.2199999999999998,0.062337122857570648,
4.2225000000000001,0.068034730851650238,
4.2249999999999996,0.074453555047512054,
4.2275,0.08873363584280014,
4.2300000000000004,0.096090041100978851,
4.2324999999999999,0.10315795987844467,
4.2350000000000003,0.10976910591125488,
4.2374999999999998,0.12097200006246567,
4.2400000000000002,0.1254194974899292,
4.2424999999999997,0.12916982173919678,
4.2450000000000001,0.13229510188102722,
4.2474999999999996,0.13707916438579559,
4.25,0.13890624046325684,
4.2525000000000004,0.14042079448699951,
4.2549999999999999,0.14162282645702362,
4.2575000000000003,0.14299313724040985,
4.2599999999999998,0.14306525886058807,
4.2625000000000002,0.14263252913951874,
4.2649999999999997,0.14167091250419617,
4.2675000000000001,0.1378244161605835,
4.2699999999999996,0.13484339416027069,
4.2725,0.13106903433799744,
4.2750000000000004,0.12640516459941864,
4.2774999999999999,0.11421661078929901,
4.2800000000000002,0.10657171905040741,
4.2824999999999998,0.097845003008842468,
4.2850000000000001,0.08810858428478241,
4.2874999999999996,0.066063404083251953,
4.29,0.05413929745554924,
4.2925000000000004,0.041950743645429611,
4.2949999999999999,0.029762189835309982,
4.2975000000000003,0.0064669055864214897,
4.2999999999999998,-0.0042311353608965874,
4.3025000000000002,-0.014183918945491314,
4.3049999999999997,-0.023367404937744141,
4.3075000000000001,-0.039907298982143402,
4.3099999999999996,-0.047576230019330978,
4.3125,-0.055028796195983887,
4.3150000000000004,-0.062433283776044846,
4.3174999999999999,-0.077025890350341797,
4.3200000000000003,-0.084069773554801941,
4.3224999999999998,-0.090680919587612152,
4.3250000000000002,-0.096642971038818359,
4.3274999999999997,-0.10568221658468246,
4.3300000000000001,-0.10851900279521942,
4.3324999999999996,-0.11017780005931854,
4.335,-0.11077880859375,
4.3375000000000004,-0.10986527055501938,
4.3399999999999999,-0.10895173251628876,
4.3425000000000002,-0.10815839469432831,
4.3449999999999998,-0.10774970054626465,
4.3475000000000001,-0.10878344625234604,
4.3499999999999996,-0.11024992167949677,
4.3525,-0.11219720542430878,
4.3550000000000004,-0.11438488960266113,
4.3574999999999999,-0.1184237003326416,
4.3600000000000003,-0.11974593251943588,
4.3624999999999998,-0.12039502710103989,
4.3650000000000002,-0.12027482688426971,
4.3674999999999997,-0.11806309223175049,
4.3700000000000001,-0.11638025939464569,
4.3724999999999996,-0.11464934051036835,
4.375,-0.11313478648662567,
4.3775000000000004,-0.11166831105947495,
4.3799999999999999,-0.11190871894359589,
4.3825000000000003,-0.11279821395874023,
4.3849999999999998,-0.11421661078929901,
4.3875000000000002,-0.1177746057510376,
4.3899999999999997,-0.11950552463531494,
4.3925000000000001,-0.12097200006246567,
4.3949999999999996,-0.12207786738872528,
4.3975,-0.12320777028799057,
4.4000000000000004,-0.12335201352834702,
4.4024999999999999,-0.12327989190816879,
4.4050000000000002,-0.12313564866781235,
4.4074999999999998,-0.12270291894674301,
4.4100000000000001,-0.12239038944244385,
4.4124999999999996,-0.12195765972137451,
4.415,-0.12138068675994873,
4.4175000000000004,-0.11957764625549316,
4.4199999999999999,-0.11837562173604965,
4.4225000000000003,-0.11710147559642792,
4.4249999999999998,-0.11582732200622559,
4.4275000000000002,-0.11371175944805145,
4.4299999999999997,-0.11306266486644745,
4.4325000000000001,-0.11272609233856201,
4.4349999999999996,-0.11265397071838379,
4.4375,-0.1130145788192749,
4.4400000000000004,-0.11315882205963135,
4.4424999999999999,-0.1131107434630394,
4.4450000000000003,-0.11275013536214828,
4.4474999999999998,-0.11080285161733627,
4.4500000000000002,-0.1091921329498291,
4.4524999999999997,-0.10724484920501709,
4.4550000000000001,-0.10503312200307846,
4.4574999999999996,-0.10032117366790771,
4.46,-0.098061367869377136,
4.4625000000000004,-0.096017919480800629,
4.4649999999999999,-0.094238921999931335,
4.4675000000000002,-0.091762743890285492,
4.4699999999999998,-0.091089606285095215,
4.4725000000000001,-0.090753041207790375,
4.4749999999999996,-0.090704962611198425,
4.4775,-0.091209813952445984,
4.4800000000000004,-0.091618500649929047,
4.4824999999999999,-0.092027187347412109,
4.4850000000000003,-0.092363759875297546,
4.4874999999999998,-0.092700324952602386,
4.4900000000000002,-0.092676281929016113,
4.4924999999999997,-0.092556081712245941,
4.4950000000000001,-0.092339716851711273,
4.4974999999999996,-0.091738700866699219,
4.5,-0.091378092765808105,
4.5025000000000004,-0.090969406068325043,
4.5049999999999999,-0.090536676347255707,
4.5075000000000003,-0.089454852044582367,
4.5099999999999998,-0.08878171443939209,
4.5125000000000002,-0.088012419641017914,
4.5149999999999997,-0.087195038795471191,
4.5175000000000001,-0.085440084338188171,
4.5199999999999996,-0.084598660469055176,
4.5225,-0.083853408694267273,
4.5250000000000004,-0.083228349685668945,
4.5274999999999999,-0.082459054887294769,
4.5300000000000002,-0.082314811646938324,
4.5324999999999998,-0.082314811646938324,
4.5350000000000001,-0.08241097629070282,
4.5374999999999996,-0.08269946277141571,
4.54,-0.082843706011772156,
4.5425000000000004,-0.082915827631950378,
4.5449999999999999,-0.082939863204956055,
4.5475000000000003,-0.082915827631950378,
4.5499999999999998,-0.082963906228542328,
4.5525000000000002,-0.083156228065490723,
4.5549999999999997,-0.08349280059337616,
4.5575000000000001,-0.08486311137676239,
4.5599999999999996,-0.085848771035671234,
4.5625,-0.086930595338344574,
4.5650000000000004,-0.087940298020839691,
4.5674999999999999,-0.089166365563869476,
4.5700000000000003,-0.088998079299926758,
4.5724999999999998,-0.088132619857788086,
4.5750000000000002,-0.086497865617275238,
4.5774999999999997,-0.081160865724086761,
4.5800000000000001,-0.077747106552124023,
4.5824999999999996,-0.074189111590385437,
4.585,-0.070799395442008972,
4.5875000000000004,-0.065678760409355164,
4.5899999999999999,-0.064452692866325378,
4.5925000000000002,-0.064260363578796387,
4.5949999999999998,-0.065149866044521332,
4.5975000000000001,-0.069549284875392914,
4.5999999999999996,-0.072578392922878265,
4.6025,-0.075727701187133789,
4.6050000000000004,-0.078660652041435242,
4.6074999999999999,-0.082723498344421387,
4.6100000000000003,-0.083372592926025391,
4.6124999999999998,-0.082891784608364105,
4.6150000000000002,-0.081281065940856934,
4.6174999999999997,-0.074717998504638672,
4.6200000000000001,-0.070030093193054199,
4.6224999999999996,-0.064645014703273773,
4.625,-0.058827202767133713,
4.6275000000000004,-0.046903096139431,
4.6299999999999999,-0.041349731385707855,
4.6325000000000003,-0.036373339593410492,
4.6349999999999998,-0.032214324921369553,
4.6375000000000002,-0.026973485946655273,
4.6399999999999997,-0.026059946045279503,
4.6425000000000001,-0.026300352066755295,
4.6449999999999996,-0.027670662850141525,
4.6475,-0.03351251408457756,
4.6500000000000004,-0.037791728973388672,
4.6524999999999999,-0.042864285409450531,
4.6550000000000002,-0.04860997200012207,
4.6574999999999998,-0.061615906655788422,
4.6600000000000001,-0.068515539169311523,
4.6624999999999996,-0.075391136109828949,
4.665,-0.081978246569633484,
4.6675000000000004,-0.093181133270263672,
4.6699999999999999,-0.097316108644008636,
4.6725000000000003,-0.10024905204772949,
4.6749999999999998,-0.10190784931182861,
4.6775000000000002,-0.10171552747488022,
4.6799999999999997,-0.10015289485454559,
4.6825000000000001,-0.097869038581848145,
4.6849999999999996,-0.095056295394897461,
4.6875,-0.088661514222621918,
4.6900000000000004,-0.085416041314601898,
4.6924999999999999,-0.082386933267116547,
4.6950000000000003,-0.079910755157470703,
4.6974999999999998,-0.078179836273193359,
4.7000000000000002,-0.080030962824821472,
4.7024999999999997,-0.0845746248960495,
4.7050000000000001,-0.092363759875297546,
4.7074999999999996,-0.11931320279836655,
4.71,-0.1383773535490036,
4.7125000000000004,-0.16032636165618896,
4.7149999999999999,-0.18376588821411133,
4.7175000000000002,-0.2268705815076828,
4.7199999999999998,-0.24110257625579834,
4.7225000000000001,-0.24636745452880859,
4.7249999999999996,-0.23956398665904999,
4.7275,-0.17919819056987762,
4.7300000000000004,-0.12227018922567368,
4.7324999999999999,-0.047119460999965668,
4.7350000000000003,0.04478752613067627,
4.7374999999999998,0.26557585597038269,
4.7400000000000002,0.38414379954338074,
4.7424999999999997,0.49937009811401367,
4.7450000000000001,0.60399454832077026,
4.7474999999999996,0.75314205884933472,
4.75,0.78614974021911621,
4.7525000000000004,0.78663051128387451,
4.7549999999999999,0.75386327505111694,
4.7575000000000003,0.59824883937835693,
4.7599999999999998,0.48597952723503113,
4.7625000000000002,0.3605840802192688,
4.7649999999999997,0.23062090575695038,
4.7675000000000001,-0.010481676086783409,
4.7699999999999996,-0.10820647329092026,
4.7725,-0.18484771251678467,
4.7750000000000004,-0.23877064883708954,
4.7774999999999999,-0.28209170699119568,
4.7800000000000002,-0.27742785215377808,
4.7824999999999998,-0.26083987951278687,
4.7850000000000001,-0.23689548671245575,
4.7874999999999996,-0.18309275805950165,
4.79,-0.1592685878276825,
4.7925000000000004,-0.13984382152557373,
4.7949999999999999,-0.1253233402967453,
4.7975000000000003,-0.10957678407430649,
4.7999999999999998,-0.10647555440664291,
4.8025000000000002,-0.10503312200307846,
4.8049999999999997,-0.10421574115753174,
4.8075000000000001,-0.10149916261434555,
4.8099999999999996,-0.09875854104757309,
4.8125,-0.094960138201713562,
4.8150000000000004,-0.090224146842956543,
4.8174999999999999,-0.079045295715332031,
4.8200000000000003,-0.073275566101074219,
4.8224999999999998,-0.067794322967529297,
4.8250000000000002,-0.062914095818996429,
4.8274999999999997,-0.055677890777587891,
4.8300000000000001,-0.053514242172241211,
4.8324999999999996,-0.052264135330915451,
4.835,-0.051831405609846115,
4.8375000000000004,-0.052504539489746094,
4.8399999999999999,-0.053009390830993652,
4.8425000000000002,-0.05322575569152832,
4.8449999999999998,-0.052841108292341232,
4.8475000000000001,-0.049571596086025238,
4.8499999999999996,-0.046542488038539886,
4.8525,-0.042695999145507812,
4.8550000000000004,-0.038248501718044281,
4.8574999999999999,-0.028752487152814865,
4.8600000000000003,-0.024377107620239258,
4.8624999999999998,-0.020674865692853928,
4.8650000000000002,-0.017814040184020996,
4.8674999999999997,-0.014857053756713867,
4.8700000000000001,-0.014496445655822754,
4.8724999999999996,-0.01461664866656065,
4.875,-0.014808973297476768,
4.8775000000000004,-0.014256040565669537,
4.8799999999999999,-0.013005932793021202,
4.8825000000000003,-0.010890364646911621,
4.8849999999999998,-0.0079574193805456161,
4.8875000000000002,-4.8081081331474707e-05,
4.8899999999999997,0.0044955811463296413,
4.8925000000000001,0.0091594457626342773,
4.8949999999999996,0.013727148994803429,
4.8975,0.022189419716596603,
4.9000000000000004,0.026059946045279503,
4.9024999999999999,0.029762189835309982,
4.9050000000000002,0.03339231014251709,
4.9074999999999998,0.040917001664638519,
4.9100000000000001,0.044979851692914963,
4.9124999999999996,0.049307148903608322,
4.915,0.053922932595014572,
4.9175000000000004,0.064043998718261719,
4.9199999999999999,0.069549284875392914,
4.9225000000000003,0.075343057513237,
4.9249999999999998,0.081473395228385925,
4.9275000000000002,0.094599530100822449,
4.9299999999999997,0.1015472412109375,
4.9325000000000001,0.10859112441539764,
4.9349999999999996,0.11561095714569092,
4.9375,0.12868902087211609,
4.9400000000000004,0.13438662886619568,
4.9424999999999999,0.13924281299114227,
4.9450000000000003,0.14316141605377197,
4.9474999999999998,0.14813780784606934,
4.9500000000000002,0.14936387538909912,
4.9524999999999997,0.14996489882469177,
4.9550000000000001,0.15015721321105957,
4.9574999999999996,0.14996489882469177,
4.96,0.14982065558433533,
4.9625000000000004,0.14965236186981201,
4.9649999999999999,0.14931580424308777,
4.9675000000000002,0.14727234840393066,
4.9699999999999998,0.14496445655822754,
4.9725000000000001,0.14143049716949463,
4.9749999999999996,0.13643006980419159,
4.9775,0.12174129486083984,
4.9800000000000004,0.11219720542430878,
4.9824999999999999,0.10147511959075928,
4.9850000000000003,0.089911624789237976,
4.9874999999999998,0.065726839005947113,
4.9900000000000002,0.053730607032775879,
4.9924999999999997,0.042143069207668304,
4.9950000000000001,0.03106037899851799,
4.9974999999999996,0.010457634925842285,
5,0.00079333782196044922,87.751373291015625
5.0025000000000004,-0.0085343923419713974,
5.0049999999999999,-0.017573636025190353,
5.0075000000000003,-0.034786663949489594,
5.0099999999999998,-0.042840242385864258,
5.0125000000000002,-0.05043705552816391,
5.0149999999999997,-0.057456891983747482,
5.0175000000000001,-0.069669485092163086,
5.0199999999999996,-0.074910327792167664,
5.0225,-0.079646311700344086,
5.0250000000000004,-0.083973608911037445,
5.0274999999999999,-0.091570422053337097,
5.0300000000000002,-0.094863973557949066,
5.0324999999999998,-0.097748838365077972,
5.0350000000000001,-0.10015289485454559,
5.0374999999999996,-0.10323008149862289,
5.04,-0.10385513305664062,
5.0425000000000004,-0.10397534072399139,
5.0449999999999999,-0.10373493283987045,
5.0475000000000003,-0.10289351642131805,
5.0499999999999998,-0.10267715156078339,
5.0525000000000002,-0.10277330875396729,
5.0549999999999997,-0.10318200290203094,
5.0575000000000001,-0.1045282706618309,
5.0599999999999996,-0.10508120059967041,
5.0625,-0.10522544384002686,
5.0650000000000004,-0.10479271411895752,
5.0674999999999999,-0.10173957049846649,
5.0700000000000003,-0.099311470985412598,
5.0724999999999998,-0.09659489244222641,
5.0750000000000002,-0.093902349472045898,
5.0774999999999997,-0.090103946626186371,
5.0800000000000001,-0.089575052261352539,
5.0824999999999996,-0.09015202522277832,
5.085,-0.091786786913871765,
5.0875000000000004,-0.097292065620422363,
5.0899999999999999,-0.10048945993185043,
5.0925000000000002,-0.10342240333557129,
5.0949999999999998,-0.10575433820486069,
5.0975000000000001,-0.10777374356985092,
5.0999999999999996,-0.10734101384878159,
5.1025,-0.10613898932933807,
5.1050000000000004,-0.10440807044506073,
5.1074999999999999,-0.10044138133525848,
5.1100000000000003,-0.09875854104757309,
5.1124999999999998,-0.097532473504543304,
5.1150000000000002,-0.096835300326347351,
5.1174999999999997,-0.097003579139709473,
5.1200000000000001,-0.097652673721313477,
5.1224999999999996,-0.098518133163452148,
5.125,-0.099407635629177094,
5.1275000000000004,-0.10092218965291977,
5.1299999999999999,-0.10135491937398911,
5.1325000000000003,-0.10149916261434555,
5.1349999999999998,-0.10133087635040283,
5.1375000000000002,-0.10003268718719482,
5.1399999999999997,-0.098902784287929535,
5.1425000000000001,-0.097460351884365082,
5.1449999999999996,-0.095753476023674011,
5.1475,-0.091786786913871765,
5.1500000000000004,-0.089671216905117035,
5.1524999999999999,-0.087651811540126801,
5.1550000000000002,-0.085776649415493011,
5.1574999999999998,-0.082795619964599609,
5.1600000000000001,-0.081785917282104492,
5.1624999999999996,-0.081112787127494812,
5.165,-0.080704092979431152,
5.1675000000000004,-0.080439649522304535,
5.1699999999999999,-0.080415606498718262,
5.1725000000000003,-0.080415606498718262,
5.1749999999999998,-0.080343484878540039,
5.1775000000000002,-0.079934798181056976,
5.1799999999999997,-0.079598233103752136,
5.1825000000000001,-0.079237625002861023,
5.1849999999999996,-0.078852973878383636,
5.1875,-0.07808367908000946,
5.1900000000000004,-0.077723070979118347,
5.1924999999999999,-0.077338419854640961,
5.1950000000000003,-0.076881647109985352,
5.1974999999999998,-0.07567962259054184,
5.2000000000000002,-0.07488628476858139,
5.2024999999999997,-0.073972746729850769,
5.2050000000000001,-0.072963044047355652,
5.2074999999999996,-0.071087881922721863,
5.21,-0.070390701293945312,
5.2125000000000004,-0.0699339359998703,
5.2149999999999999,-0.069741606712341309,
5.2175000000000002,-0.069885849952697754,
5.2199999999999998,-0.070030093193054199,
5.2225000000000001,-0.069957971572875977,
5.2249999999999996,-0.069549284875392914,
5.2275,-0.067313514649868011,
5.2300000000000004,-0.065486431121826172,
5.2324999999999999,-0.063394904136657715,
5.2350000000000003,-0.061183176934719086,
5.2374999999999998,-0.057480931282043457,
5.2400000000000002,-0.056351028382778168,
5.2424999999999997,-0.055822134017944336,
5.2450000000000001,-0.055846177041530609,
5.2474999999999996,-0.056855879724025726,
5.25,-0.057336688041687012,
5.2525000000000004,-0.05750497430562973,
5.2549999999999999,-0.057264566421508789,
5.2575000000000003,-0.055629812180995941,
5.2599999999999998,-0.054716270416975021,
5.2625000000000002,-0.054211419075727463,
5.2649999999999997,-0.054451823234558105,
5.2675000000000001,-0.058490633964538574,
5.2699999999999996,-0.062481366097927094,
5.2725,-0.067650079727172852,
5.2750000000000004,-0.073612138628959656,
5.2774999999999999,-0.086065135896205902,
5.2800000000000002,-0.091474257409572601,
5.2824999999999998,-0.095729433000087738,
5.2850000000000001,-0.098566219210624695,
5.2874999999999996,-0.099624000489711761,
5.29,-0.098133489489555359,
5.2925000000000004,-0.095609232783317566,
5.2949999999999999,-0.092387795448303223,
5.2975000000000003,-0.084959268569946289,
5.2999999999999998,-0.081088744103908539,
5.3025000000000002,-0.077242255210876465,
5.3049999999999997,-0.073419809341430664,
5.3075000000000001,-0.065774917602539062,
5.3099999999999996,-0.062024593353271484,
5.3125,-0.058394473046064377,
5.3150000000000004,-0.055076878517866135,
5.3174999999999999,-0.050172608345746994,
5.3200000000000003,-0.048946540802717209,
5.3224999999999998,-0.048658054322004318,
5.3250000000000002,-0.049379270523786545,
5.3274999999999997,-0.053129594773054123,
5.3300000000000001,-0.055629812180995941,
5.3324999999999996,-0.058105986565351486,
5.335,-0.060149431228637695,
5.3375000000000004,-0.061639945954084396,
5.3399999999999999,-0.060558121651411057,
5.3425000000000002,-0.058154068887233734,
5.3449999999999998,-0.054403744637966156,
5.3475000000000001,-0.04365762323141098,
5.3499999999999996,-0.037190716713666916,
5.3525,-0.030435323715209961,
5.3550000000000004,-0.023800134658813477,
5.3574999999999999,-0.012212594971060753,
5.3600000000000003,-0.0078612565994262695,
5.3624999999999998,-0.004784067627042532,
5.3650000000000002,-0.0030771892052143812,
5.3674999999999997,-0.0039186081849038601,
5.3700000000000001,-0.0063467025756835938,
5.3724999999999996,-0.0099287433549761772,
5.375,-0.014472405426204205,
5.3775000000000004,-0.025507014244794846,
5.3799999999999999,-0.031541191041469574,
5.3825000000000003,-0.037599407136440277,
5.3849999999999998,-0.043489336967468262,
5.3875000000000002,-0.05430757999420166,
5.3899999999999997,-0.059067606925964355,
5.3925000000000001,-0.063370868563652039,
5.3949999999999996,-0.067217350006103516,
5.3975,-0.073612138628959656,
5.4000000000000004,-0.076112352311611176,
5.4024999999999999,-0.07808367908000946,
5.4050000000000002,-0.079381868243217468,
5.4074999999999998,-0.079333782196044922,
5.4100000000000001,-0.077699027955532074,
5.4124999999999996,-0.074838206171989441,
5.415,-0.070895552635192871,
5.4175000000000004,-0.060990851372480392,
5.4199999999999999,-0.056158702820539474,
5.4225000000000003,-0.052552621811628342,
5.4249999999999998,-0.051158271729946136,
5.4275000000000002,-0.058803163468837738,
5.4299999999999997,-0.069405041635036469,
5.4325000000000001,-0.084983311593532562,
5.4349999999999996,-0.1052735298871994,
5.4375,-0.15621542930603027,
5.4400000000000004,-0.18347740173339844,
5.4424999999999999,-0.20886421203613281,
5.4450000000000003,-0.22956311702728271,
5.4474999999999998,-0.24497310817241669,
5.4500000000000002,-0.23403465747833252,
5.4524999999999997,-0.20742177963256836,
5.4550000000000001,-0.16359588503837585,
5.4574999999999996,-0.022598108276724815,
5.46,0.072506271302700043,
5.4625000000000004,0.18040022253990173,
5.4649999999999999,0.29675644636154175,
5.4675000000000002,0.53158444166183472,
5.4699999999999998,0.63654541969299316,
5.4725000000000001,0.72383666038513184,
5.4749999999999996,0.78708732128143311,
5.4775,0.82285964488983154,
5.4800000000000004,0.79112613201141357,
5.4824999999999999,0.72753888368606567,
5.4850000000000003,0.63608866930007935,
5.4874999999999998,0.39594769477844238,
5.4900000000000002,0.26360452175140381,
5.4924999999999997,0.13462702929973602,
5.4950000000000001,-0.083757244050502777,
5.4974999999999996,-0.16277849674224854,
5.5,-0.21845638751983643,
5.5025000000000004,-0.25122365355491638,
5.5049999999999999,-0.25884449481964111,
5.5075000000000003,-0.24218440055847168,
5.5099999999999998,-0.21826407313346863,
5.5125000000000002,-0.19148290157318115,
5.5149999999999997,-0.16547104716300964,
5.5175000000000001,-0.12465020269155502,
5.5199999999999996,-0.11157214641571045,
5.5225,-0.10298967361450195,
5.5250000000000004,-0.095056295394897461,
5.5274999999999999,-0.093253254890441895,
5.5300000000000002,-0.091570422053337097,
5.5324999999999998,-0.089310608804225922,
5.5350000000000001,-0.082435011863708496,
5.5374999999999996,-0.07808367908000946,
5.54,-0.073564052581787109,
5.5425000000000004,-0.069212719798088074,
5.5449999999999999,-0.062072675675153732,
5.5475000000000003,-0.059452258050441742,
5.5499999999999998,-0.05738477036356926,
5.5525000000000002,-0.055701933801174164,
5.5549999999999997,-0.052696865051984787,
5.5575000000000001,-0.051038067787885666,
5.5599999999999996,-0.049114823341369629,
5.5625,-0.046927135437726974,
5.5650000000000004,-0.041974782943725586,
5.5674999999999999,-0.039474569261074066,
5.5700000000000003,-0.037094555795192719,
5.5724999999999998,-0.034930907189846039,
5.5750000000000002,-0.031565230339765549,
5.5774999999999997,-0.030339162796735764,
5.5800000000000001,-0.029329460114240646,
5.5824999999999996,-0.028415918350219727,
5.585,-0.026540756225585938,
5.5875000000000004,-0.025338729843497276,
5.5899999999999999,-0.023920338600873947,
5.5925000000000002,-0.022189419716596603,
5.5949999999999998,-0.017862122505903244,
5.5975000000000001,-0.015289783477783203,
5.5999999999999996,-0.01247704029083252,
5.6025,-0.0093998517841100693,
5.6050000000000004,-0.0060822567902505398,
5.6074999999999999,0.0013222297420725226,
5.6100000000000003,0.0053610405884683132,
5.6124999999999998,0.0095921754837036133,
5.6150000000000002,0.018246769905090332,
5.6174999999999997,0.02245386503636837,
5.6200000000000001,0.026420554146170616,
5.6224999999999996,0.030074715614318848,
5.625,0.036301217973232269,
5.6275000000000004,0.038993757218122482,
5.6299999999999999,0.041518013924360275,
5.6325000000000003,0.044138431549072266,
5.6349999999999998,0.050292812287807465,
5.6375000000000002,0.054211419075727463,
5.6399999999999997,0.058851242065429688,
5.6425000000000001,0.064212284982204437,
5.6449999999999996,0.076881647109985352,
5.6475,0.083901487290859222,
5.6500000000000004,0.091089606285095215,
5.6524999999999999,0.098253689706325531,
5.6550000000000002,0.11193275451660156,
5.6574999999999998,0.11827945709228516,
5.6600000000000001,0.12424151599407196,
5.6624999999999996,0.129891037940979,
5.665,0.14058908820152283,
5.6675000000000004,0.14578184485435486,
5.6699999999999999,0.15092651546001434,
5.6725000000000003,0.15597502887248993,
5.6749999999999998,0.16554316878318787,
5.6775000000000002,0.169798344373703,
5.6799999999999997,0.17347654700279236,
5.6825000000000001,0.17648160457611084,
5.6849999999999996,0.17999152839183807,
5.6875,0.18037617206573486,
5.6900000000000004,0.17979919910430908,
5.6924999999999999,0.17830869555473328,
5.6950000000000003,0.17244279384613037,
5.6974999999999998,0.16804337501525879,
5.7000000000000002,0.16258618235588074,
5.7024999999999997,0.15602311491966248,
5.7050000000000001,0.13933897018432617,
5.7074999999999996,0.1291457861661911,
5.71,0.1177746057510376,
5.7125000000000004,0.10532160848379135,
5.7149999999999999,0.078155800700187683,
5.7175000000000002,0.063995920121669769,
5.7199999999999998,0.049932204186916351,
5.7225000000000001,0.036277174949645996,
5.7249999999999996,0.011419257149100304,
5.7275,0.00057697296142578125,
5.7300000000000004,-0.0090873241424560547,
5.7324999999999999,-0.017645757645368576,
5.7350000000000003,-0.032021999359130859,
5.7374999999999998,-0.038320623338222504,
5.7400000000000002,-0.044282674789428711,
5.7424999999999997,-0.050100486725568771,
5.7450000000000001,-0.061712067574262619,
5.7474999999999996,-0.067433714866638184,
5.75,-0.072939001023769379,
5.7525000000000004,-0.078059636056423187,
5.7549999999999999,-0.086305543780326843,
5.7575000000000003,-0.089142322540283203,
5.7599999999999998,-0.091017484664916992,
5.7625000000000002,-0.09197910875082016,
5.7649999999999997,-0.091955065727233887,
5.7675000000000001,-0.091522336006164551,
5.7699999999999996,-0.091185770928859711,
5.7725,-0.091257892549037933,
5.7750000000000004,-0.093421541154384613,
5.7774999999999999,-0.095585189759731293,
5.7800000000000002,-0.098325811326503754,
5.7824999999999998,-0.10142704099416733,
5.7850000000000001,-0.10734101384878159,
5.7874999999999996,-0.10950466245412827,
5.79,-0.11075477302074432,
5.7925000000000004,-0.11094709485769272,
5.7949999999999999,-0.10808627307415009,
5.7975000000000003,-0.10539373010396957,
5.7999999999999998,-0.10222037881612778,
5.8025000000000002,-0.098950862884521484,
5.8049999999999997,-0.093469619750976562,
5.8075000000000001,-0.091810822486877441,
5.8099999999999996,-0.091113649308681488,
5.8125,-0.091378092765808105,
5.8150000000000004,-0.094238921999931335,
5.8174999999999999,-0.096378527581691742,
5.8200000000000003,-0.098590254783630371,
5.8224999999999998,-0.10053753852844238,
5.8250000000000002,-0.10277330875396729,
5.8274999999999997,-0.10272523015737534,
5.8300000000000001,-0.10183572769165039,
5.8324999999999996,-0.10020097345113754,
5.835,-0.095392867922782898,
5.8375000000000004,-0.092700324952602386,
5.8399999999999999,-0.09015202522277832,
5.8425000000000002,-0.088012419641017914,
5.8449999999999998,-0.085656449198722839,
5.8475000000000001,-0.085632406175136566,
5.8499999999999996,-0.086377665400505066,
5.8525,-0.087796054780483246,
5.8550000000000004,-0.091834865510463715,
5.8574999999999999,-0.093950435519218445,
5.8600000000000003,-0.095825597643852234,
5.8624999999999998,-0.097171865403652191,
5.8650000000000002,-0.0976286381483078,
5.8674999999999997,-0.096618935465812683,
5.8700000000000001,-0.094815894961357117,
5.8724999999999996,-0.092387795448303223,
5.875,-0.086545944213867188,
5.8775000000000004,-0.083709165453910828,
5.8799999999999999,-0.081257030367851257,
5.8825000000000003,-0.079405903816223145,
5.8849999999999998,-0.077963471412658691,
5.8875000000000002,-0.078348122537136078,
5.8899999999999997,-0.079357825219631195,
5.8925000000000001,-0.080704092979431152,
5.8949999999999996,-0.083540879189968109,
5.8975,-0.084502503275871277,
5.9000000000000004,-0.08491118997335434,
5.9024999999999999,-0.084646746516227722,
5.9050000000000002,-0.082122489809989929,
5.9074999999999998,-0.080127120018005371,
5.9100000000000001,-0.077867314219474792,
5.9124999999999996,-0.07563154399394989,
5.915,-0.072121620178222656,
5.9175000000000004,-0.071135960519313812,
5.9199999999999999,-0.070799395442008972,
5.9225000000000003,-0.07106383889913559,
5.9249999999999998,-0.072746679186820984,
5.9275000000000002,-0.073780417442321777,
5.9299999999999997,-0.074669919908046722,
5.9325000000000001,-0.075246892869472504,
5.9349999999999996,-0.075150728225708008,
5.9375,-0.074477598071098328,
5.9400000000000004,-0.073564052581787109,
5.9424999999999999,-0.072602435946464539,
5.9450000000000003,-0.071208082139492035,
5.9474999999999998,-0.071111917495727539,
5.9500000000000002,-0.071544647216796875,
5.9524999999999997,-0.07248222827911377,
5.9550000000000001,-0.075439214706420898,
5.9574999999999996,-0.077122054994106293,
5.96,-0.078636609017848969,
5.9625000000000004,-0.07983863353729248,
5.9649999999999999,-0.08063197135925293,
5.9675000000000002,-0.080103084444999695,
5.9699999999999998,-0.078973174095153809,
5.9725000000000001,-0.077362462878227234,
5.9749999999999996,-0.073203444480895996,
5.9775,-0.070991717278957367,
5.9800000000000004,-0.06890019029378891,
5.9824999999999999,-0.067049071192741394,
5.9850000000000003,-0.064356528222560883,
5.9874999999999998,-0.063587233424186707,
5.9900000000000002,-0.063178539276123047,
5.9924999999999997,-0.063130460679531097,
5.9950000000000001,-0.063731476664543152,
5.9974999999999996,-0.064260363578796387,
6,-0.064789257943630219,87.136932373046875
6.0025000000000004,-0.065270066261291504,
6.0049999999999999,-0.065678760409355164,
6.0075000000000003,-0.065558552742004395,
6.0099999999999998,-0.065173909068107605,
6.0125000000000002,-0.064596936106681824,
6.0149999999999997,-0.063082382082939148,
6.0175000000000001,-0.062313079833984375,
6.0199999999999996,-0.061688028275966644,
6.0225,-0.061231255531311035,
6.0250000000000004,-0.060942769050598145,
6.0274999999999999,-0.06103893369436264,
6.0300000000000002,-0.061135094612836838,
6.0324999999999998,-0.061159133911132812,
6.0350000000000001,-0.060341756790876389,
6.0374999999999996,-0.059308014810085297,
6.04,-0.057817500084638596,
6.0425000000000004,-0.055870216339826584,
6.0449999999999999,-0.051038067787885666,
6.0475000000000003,-0.048489771783351898,
6.0499999999999998,-0.046133797615766525,
6.0525000000000002,-0.044114392250776291,
6.0549999999999997,-0.041830539703369141,
6.0575000000000001,-0.041686296463012695,
6.0599999999999996,-0.042215190827846527,
6.0625,-0.043272972106933594,
6.0650000000000004,-0.046326123178005219,
6.0674999999999999,-0.047864716500043869,
6.0700000000000003,-0.049138866364955902,
6.0724999999999998,-0.049956243485212326,
6.0750000000000002,-0.049932204186916351,
6.0774999999999997,-0.049066744744777679,
6.0800000000000001,-0.047792594879865646,
6.0824999999999996,-0.046229958534240723,
6.085,-0.042888324707746506,
6.0875000000000004,-0.041325688362121582,
6.0899999999999999,-0.039883255958557129,
6.0925000000000002,-0.038416784256696701,
6.0949999999999998,-0.034786663949489594,
6.0975000000000001,-0.032166242599487305,
6.0999999999999996,-0.028704404830932617,
6.1025,-0.024329027161002159,
6.1050000000000004,-0.013174216262996197,
6.1074999999999999,-0.0069477162323892117,
6.1100000000000003,-0.00091354054166004062,
6.1124999999999998,0.004351337905973196,
6.1150000000000002,0.010409554466605186,
6.1174999999999997,0.010385513305664062,
6.1200000000000001,0.0080776214599609375,
6.1224999999999996,0.0035820405464619398,
6.125,-0.010409554466605186,
6.1275000000000004,-0.018823742866516113,
6.1299999999999999,-0.027310054749250412,
6.1325000000000003,-0.035291515290737152,
6.1349999999999998,-0.04798492044210434,
6.1375000000000002,-0.052288174629211426,
6.1399999999999997,-0.055269204080104828,
6.1425000000000001,-0.057144366204738617,
6.1449999999999996,-0.058851242065429688,
6.1475,-0.059380136430263519,
6.1500000000000004,-0.060053270310163498,
6.1524999999999999,-0.061014890670776367,
6.1550000000000002,-0.063515111804008484,
6.1574999999999998,-0.064669057726860046,
6.1600000000000001,-0.065342187881469727,
6.1624999999999996,-0.065173909068107605,
6.165,-0.061495702713727951,
6.1675000000000004,-0.058009825646877289,
6.1699999999999999,-0.053850810974836349,
6.1725000000000003,-0.04969179630279541,
6.1749999999999998,-0.045220255851745605,
6.1775000000000002,-0.047143500298261642,
6.1799999999999997,-0.05322575569152832,
6.1825000000000001,-0.064212284982204437,
6.1849999999999996,-0.10128279775381088,
6.1875,-0.1260685920715332,
6.1900000000000004,-0.15296995639801025,
6.1924999999999999,-0.17958283424377441,
6.1950000000000003,-0.21982669830322266,
6.1974999999999998,-0.22667825222015381,
6.2000000000000002,-0.22025942802429199,
6.2024999999999997,-0.19770941138267517,
6.2050000000000001,-0.096691057085990906,
6.2074999999999996,-0.01738131046295166,
6.21,0.079478025436401367,
6.2125000000000004,0.19066552817821503,
6.2149999999999999,0.43604731559753418,
6.2175000000000002,0.55725973844528198,
6.2199999999999998,0.66760581731796265,
6.2225000000000001,0.75963300466537476,
6.2249999999999996,0.86305540800094604,
6.2275,0.8656998872756958,
6.2300000000000004,0.83348554372787476,
6.2324999999999999,0.76809525489807129,
6.2350000000000003,0.55699527263641357,
6.2374999999999998,0.42587816715240479,
6.2400000000000002,0.28947216272354126,
6.2424999999999997,0.15667220950126648,
6.2450000000000001,-0.067361593246459961,
6.2474999999999996,-0.14794549345970154,
6.25,-0.20434460043907166,
6.2525000000000004,-0.23713588714599609,
6.2549999999999999,-0.24355471134185791,
6.2575000000000003,-0.22614936530590057,
6.2599999999999998,-0.20165205001831055,
6.2625000000000002,-0.17460644245147705,
6.2649999999999997,-0.12599647045135498,
6.2675000000000001,-0.10806223005056381,
6.2699999999999996,-0.094912052154541016,
6.2725,-0.085872814059257507,
6.2750000000000004,-0.075294971466064453,
6.2774999999999999,-0.071424447000026703,
6.2800000000000002,-0.067313514649868011,
6.2824999999999998,-0.062625609338283539,
6.2850000000000001,-0.051999688148498535,
6.2874999999999996,-0.046855013817548752,
6.29,-0.04245559498667717,
6.2925000000000004,-0.039162039756774902,
6.2949999999999999,-0.036229096353054047,
6.2975000000000003,-0.036277174949645996,
6.2999999999999998,-0.036830108612775803,
6.3025000000000002,-0.037479203194379807,
6.3049999999999997,-0.037695568054914474,
6.3075000000000001,-0.036854147911071777,
6.3099999999999996,-0.035291515290737152,
6.3125,-0.033103823661804199,
6.3150000000000004,-0.027550458908081055,
6.3174999999999999,-0.024473270401358604,
6.3200000000000003,-0.021275877952575684,
6.3224999999999998,-0.018030405044555664,
6.3250000000000002,-0.011202892288565636,
6.3274999999999997,-0.0075487298890948296,
6.3300000000000001,-0.0037743649445474148,
6.3324999999999996,7.2121620178222656e-05,
6.335,0.0072842836380004883,
6.3375000000000004,0.01028935145586729,
6.3399999999999999,0.012693405151367188,
6.3425000000000002,0.014400283806025982,
6.3449999999999998,0.015818675979971886,
6.3475000000000001,0.015866756439208984,
6.3499999999999996,0.015794634819030762,
6.3525,0.015914838761091232,
6.3550000000000004,0.017790000885725021,
6.3574999999999999,0.019857486709952354,
6.3600000000000003,0.022766392678022385,
6.3624999999999998,0.026396512985229492,
6.3650000000000002,0.035099189728498459,
6.3674999999999997,0.039714973419904709,
6.3700000000000001,0.044162474572658539,
6.3724999999999996,0.04827340692281723,
6.375,0.055293243378400803,
6.3775000000000004,0.058274269104003906,
6.3799999999999999,0.06103893369436264,
6.3825000000000003,0.063851676881313324,
6.3849999999999998,0.070414744317531586,
6.3875000000000002,0.07454971969127655,
6.3899999999999997,0.079478025436401367,
6.3925000000000001,0.085271798074245453,
6.3949999999999996,0.099335514008998871,
6.3975,0.10741313546895981,
6.4000000000000004,0.11597156524658203,
6.4024999999999999,0.12479444593191147,
6.4050000000000002,0.14232000708580017,
6.4074999999999998,0.15058994293212891,
6.4100000000000001,0.15828292071819305,
6.4124999999999996,0.16525468230247498,
6.415,0.17681817710399628,
6.4175000000000004,0.18138587474822998,
6.4199999999999999,0.18520832061767578,
6.4225000000000003,0.18838167190551758,
6.4249999999999998,0.19306957721710205,
6.4275000000000002,0.19475242495536804,
6.4299999999999997,0.19605061411857605,
6.4325000000000001,0.19698819518089294,
6.4349999999999996,0.19761323928833008,
6.4375,0.19725263118743896,
6.4400000000000004,0.19631505012512207,
6.4424999999999999,0.19475242495536804,
6.4450000000000003,0.18946349620819092,
6.4474999999999998,0.18561701476573944,
6.4500000000000002,0.18092910945415497,
6.4524999999999997,0.17532765865325928,
6.4550000000000001,0.16138415038585663,
6.4574999999999996,0.15304207801818848,
6.46,0.14376243948936462,
6.4625000000000004,0.13364136219024658,
6.4649999999999999,0.11109133809804916,
6.4675000000000002,0.098902784287929535,
6.4699999999999998,0.08628150075674057,
6.4725000000000001,0.073443852365016937,
6.4749999999999996,0.047864716500043869,
6.4775,0.03555595874786377,
6.4800000000000004,0.023824175819754601,
6.4824999999999999,0.012813608162105083,
6.4850000000000003,-0.006611148826777935,
6.4874999999999998,-0.015001296997070312,
6.4900000000000002,-0.022598108276724815,
6.4924999999999997,-0.029449662193655968,
6.4950000000000001,-0.041493974626064301,
6.4974999999999996,-0.046879053115844727,
6.5,-0.051927566528320312,
6.5025000000000004,-0.056639514863491058,
6.5049999999999999,-0.064837336540222168,
6.5075000000000003,-0.068106852471828461,
6.5099999999999998,-0.070751309394836426,
6.5125000000000002,-0.072626471519470215,
6.5149999999999997,-0.074285268783569336,
6.5175000000000001,-0.074213147163391113,
6.5199999999999996,-0.073708295822143555,
6.5225,-0.072963044047355652,
6.5250000000000004,-0.071496568620204926,
6.5274999999999999,-0.07106383889913559,
6.5300000000000002,-0.070967674255371094,
6.5324999999999998,-0.071184039115905762,
6.5350000000000001,-0.072578392922878265,
6.5374999999999996,-0.073636174201965332,
6.54,-0.074838206171989441,
6.5425000000000004,-0.076136395335197449,
6.5449999999999999,-0.078756809234619141,
6.5475000000000003,-0.079982876777648926,
6.5499999999999998,-0.081064701080322266,
6.5525000000000002,-0.08200228214263916,
6.5549999999999997,-0.083036027848720551,
6.5575000000000001,-0.082987949252128601,
6.5599999999999996,-0.082531176507472992,
6.5625,-0.081617638468742371,
6.5650000000000004,-0.078612565994262695,
6.5674999999999999,-0.07671336829662323,
6.5700000000000003,-0.074790120124816895,
6.5724999999999998,-0.072963044047355652,
6.5750000000000002,-0.07031857967376709,
6.5774999999999997,-0.069741606712341309,
6.5800000000000001,-0.069669485092163086,
6.5824999999999996,-0.070102214813232422,
6.585,-0.071953341364860535,
6.5875000000000004,-0.073083244264125824,
6.5899999999999999,-0.074092946946620941,
6.5925000000000002,-0.074862241744995117,
6.5949999999999998,-0.075367093086242676,
6.5975000000000001,-0.075054571032524109,
6.5999999999999996,-0.074405476450920105,
6.6025,-0.07351597398519516,
6.6050000000000004,-0.071376368403434753,
6.6074999999999999,-0.07031857967376709,
6.6100000000000003,-0.069380998611450195,
6.6124999999999998,-0.068611703813076019,
6.6150000000000002,-0.067650079727172852,
6.6174999999999997,-0.067433714866638184,
6.6200000000000001,-0.067337557673454285,
6.6224999999999996,-0.067313514649868011,
6.625,-0.067241393029689789,
6.6275000000000004,-0.06707310676574707,
6.6299999999999999,-0.066688463091850281,
6.6325000000000003,-0.0661114901304245,
6.6349999999999998,-0.064164206385612488,
6.6375000000000002,-0.062890052795410156,
6.6399999999999997,-0.061495702713727951,
6.6425000000000001,-0.060053270310163498,
6.6449999999999996,-0.05755305290222168,
6.6475,-0.056639514863491058,
6.6500000000000004,-0.056062541902065277,
6.6524999999999999,-0.055774055421352386,
6.6550000000000002,-0.055918298661708832,
6.6574999999999998,-0.056110620498657227,
6.6600000000000001,-0.056254863739013672,
6.6624999999999996,-0.056158702820539474,
6.665,-0.055124960839748383,
6.6675000000000004,-0.05413929745554924,
6.6699999999999999,-0.052913229912519455,
6.6725000000000003,-0.05151887983083725,
6.6749999999999998,-0.048826336860656738,
6.6775000000000002,-0.047720473259687424,
6.6799999999999997,-0.046855013817548752,
6.6825000000000001,-0.046254001557826996,
6.6849999999999996,-0.045845311135053635,
6.6875,-0.045941472053527832,
6.6900000000000004,-0.046205919235944748,
6.6924999999999999,-0.046614609658718109,
6.6950000000000003,-0.047840677201747894,
6.6974999999999998,-0.048634015023708344,
6.7000000000000002,-0.049571596086025238,
6.7024999999999997,-0.05060533806681633,
6.7050000000000001,-0.052552621811628342,
6.7074999999999996,-0.053249798715114594,
6.71,-0.053634446114301682,
6.7125000000000004,-0.053538285195827484,
6.7149999999999999,-0.051927566528320312,
6.7175000000000002,-0.050485134124755859,
6.7199999999999998,-0.048778258264064789,
6.7225000000000001,-0.046975217759609222,
6.7249999999999996,-0.043898027390241623,
6.7275,-0.042936407029628754,
6.7300000000000004,-0.042479634284973145,
6.7324999999999999,-0.042527716606855392,
6.7350000000000003,-0.043777823448181152,
6.7374999999999998,-0.044667325913906097,
6.7400000000000002,-0.045484703034162521,
6.7424999999999997,-0.046085715293884277,
6.7450000000000001,-0.046205919235944748,
6.7474999999999996,-0.045701067894697189,
6.75,-0.044883690774440765,
6.7525000000000004,-0.043849945068359375,
6.7549999999999999,-0.041686296463012695,
6.7575000000000003,-0.040844880044460297,
6.7599999999999998,-0.040219824761152267,
6.7625000000000002,-0.039931338280439377,
6.7649999999999997,-0.040243864059448242,
6.7675000000000001,-0.040748715400695801,
6.7699999999999996,-0.04137377068400383,
6.7725,-0.042070947587490082,
6.7750000000000004,-0.043272972106933594,
6.7774999999999999,-0.043633580207824707,
6.7800000000000002,-0.043777823448181152,
6.7824999999999998,-0.043609540909528732,
6.7850000000000001,-0.042359434068202972,
6.7874999999999996,-0.041253566741943359,
6.79,-0.039859216660261154,
6.7925000000000004,-0.038224458694458008,
6.7949999999999999,-0.03442605584859848,
6.7975000000000003,-0.032430689781904221,
6.7999999999999998,-0.030435323715209961,
6.8025000000000002,-0.028560161590576172,
6.8049999999999997,-0.025386810302734375,
6.8075000000000001,-0.024256905540823936,
6.8099999999999996,-0.023511648178100586,
6.8125,-0.023199122399091721,
6.8150000000000004,-0.024112662300467491,
6.8174999999999999,-0.025290649384260178,
6.8200000000000003,-0.026853283867239952,
6.8224999999999998,-0.028680365532636642,
6.8250000000000002,-0.032118164002895355,
6.8274999999999997,-0.033151905983686447,
6.8300000000000001,-0.033320188522338867,
6.8324999999999996,-0.032382607460021973,
6.835,-0.02644459530711174,
6.8375000000000004,-0.021468203514814377,
6.8399999999999999,-0.01538594625890255,
6.8425000000000002,-0.0085584325715899467,
6.8449999999999998,0.0054572029039263725,
6.8475000000000001,0.011539459228515625,
6.8499999999999996,0.016395648941397667,
6.8525,0.019569000229239464,
6.8550000000000004,0.020242135971784592,
6.8574999999999999,0.017717879265546799,
6.8600000000000003,0.013582905754446983,
6.8624999999999998,0.0081978244706988335,
6.8650000000000002,-0.0046879053115844727,
6.8674999999999997,-0.011323094367980957,
6.8700000000000001,-0.017645757645368576,
6.8724999999999996,-0.023439526557922363,
6.875,-0.032983623445034027,
6.8775000000000004,-0.036782026290893555,
6.8799999999999999,-0.040099620819091797,
6.8825000000000003,-0.043032567948102951,
6.8849999999999998,-0.048225324600934982,
6.8875000000000002,-0.050581298768520355,
6.8899999999999997,-0.052744947373867035,
6.8925000000000001,-0.054572027176618576,
6.8949999999999996,-0.056519310921430588,
6.8975,-0.056182742118835449,
6.9000000000000004,-0.054764352738857269,
6.9024999999999999,-0.05214393138885498,
6.9050000000000002,-0.043753784149885178,
6.9074999999999998,-0.038681231439113617,
6.9100000000000001,-0.033825039863586426,
6.9124999999999996,-0.030050676316022873,
6.915,-0.029617946594953537,
6.9175000000000004,-0.034858785569667816,
6.9199999999999999,-0.044763486832380295,
6.9225000000000003,-0.059572458267211914,
6.9249999999999998,-0.10286947339773178,
6.9275000000000002,-0.12926599383354187,
6.9299999999999997,-0.15647988021373749,
6.9325000000000001,-0.18203496932983398,
6.9349999999999996,-0.21653315424919128,
6.9375,-0.2192256897687912,
6.9400000000000004,-0.20826320350170135,
6.9424999999999999,-0.18119356036186218,
6.9450000000000003,-0.072890922427177429,
6.9474999999999998,0.0084863109514117241,
6.9500000000000002,0.10597070306539536,
6.9524999999999997,0.21617254614830017,
6.9550000000000001,0.4543902575969696,
6.9574999999999996,0.56952041387557983,
6.96,0.67238986492156982,
6.9625000000000004,0.75590670108795166,
6.9649999999999999,0.8412746787071228,
6.9675000000000002,0.8356010913848877,
6.9699999999999998,0.79641503095626831,
6.9725000000000001,0.72595220804214478,
6.9749999999999996,0.51184713840484619,
6.9775,0.3830619752407074,
6.9800000000000004,0.25122365355491638,
6.9824999999999999,0.12489061057567596,
6.9850000000000003,-0.083108149468898773,
6.9874999999999998,-0.15544614195823669,
6.9900000000000002,-0.20420035719871521,
6.9924999999999997,-0.23035645484924316,
6.9950000000000001,-0.2275196760892868,
6.9974999999999996,-0.20746986567974091,
7,-0.18150608241558075,84.805648803710938
7.0025000000000004,-0.15390753746032715,
7.0049999999999999,-0.10642747581005096,
7.0075000000000003,-0.089935660362243652,
7.0099999999999998,-0.078708730638027191,
7.0125000000000002,-0.071977376937866211,
7.0149999999999997,-0.06707310676574707,
7.0175000000000001,-0.066183611750602722,
7.0199999999999996,-0.064837336540222168,
7.0225,-0.062409244477748871,
7.0250000000000004,-0.053538285195827484,
7.0274999999999999,-0.04752814769744873,
7.0300000000000002,-0.041061244904994965,
7.0324999999999998,-0.034642420709133148,
7.0350000000000001,-0.023679932579398155,
7.0374999999999996,-0.019689202308654785,
7.04,-0.01675625704228878,
7.0425000000000004,-0.014808973297476768,
7.0449999999999999,-0.013126134872436523,
7.0475000000000003,-0.012837648391723633,
7.0499999999999998,-0.012573203071951866,
7.0525000000000002,-0.012092391960322857,
7.0549999999999997,-0.0099768247455358505,
7.0575000000000001,-0.0082459058612585068,
7.0599999999999996,-0.0061303377151489258,
7.0625,-0.0037262837868183851,
7.0650000000000004,0.001466472982428968,
7.0674999999999999,0.0039907298050820827,
7.0700000000000003,0.0064188241958618164,
7.0724999999999998,0.0087267160415649414,
7.0750000000000002,0.013270378112792969,
7.0774999999999997,0.015698473900556564,
7.0800000000000001,0.018391013145446777,
7.0824999999999996,0.021347999572753906,
7.085,0.028031270951032639,
7.0875000000000004,0.031565230339765549,
7.0899999999999999,0.035003028810024261,
7.0925000000000002,0.038200419396162033,
7.0949999999999998,0.043465297669172287,
7.0975000000000001,0.045508742332458496,
7.0999999999999996,0.047263704240322113,
7.1025,0.048946540802717209,
7.1050000000000004,0.05293726921081543,
7.1074999999999999,0.055653851479291916,
7.1100000000000003,0.059019528329372406,
7.1124999999999998,0.063010260462760925,
7.1150000000000002,0.072458192706108093,
7.1174999999999997,0.077530741691589355,
7.1200000000000001,0.082555219531059265,
7.1224999999999996,0.087387368083000183,
7.125,0.096234284341335297,
7.1275000000000004,0.10034521669149399,
7.1299999999999999,0.10448019206523895,
7.1325000000000003,0.10875940322875977,
7.1349999999999998,0.1185198649764061,
7.1375000000000002,0.12409727275371552,
7.1399999999999997,0.13015548884868622,
7.1425000000000001,0.13652622699737549,
7.1449999999999996,0.14953216910362244,
7.1475,0.15583078563213348,
7.1500000000000004,0.16184091567993164,
7.1524999999999999,0.16744236648082733,
7.1550000000000002,0.17758747935295105,
7.1574999999999998,0.18225133419036865,
7.1600000000000001,0.18674692511558533,
7.1624999999999996,0.19112229347229004,
7.165,0.19932012259960175,
7.1675000000000004,0.20292620360851288,
7.1699999999999999,0.20600339770317078,
7.1725000000000003,0.20828723907470703,
7.1749999999999998,0.20977775752544403,
7.1775000000000002,0.20867189764976501,
7.1799999999999997,0.2062678337097168,
7.1825000000000001,0.20256559550762177,
7.1849999999999996,0.19172331690788269,
7.1875,0.18494388461112976,
7.1900000000000004,0.17749130725860596,
7.1924999999999999,0.16955792903900146,
7.1950000000000003,0.15272955596446991,
7.1974999999999998,0.14397880434989929,
7.2000000000000002,0.13496360182762146,
7.2024999999999997,0.12565991282463074,
7.2050000000000001,0.10587453842163086,
7.2074999999999996,0.095248624682426453,
7.21,0.084141895174980164,
7.2125000000000004,0.072602435946464539,
7.2149999999999999,0.048826336860656738,
7.2175000000000002,0.037046473473310471,
7.2199999999999998,0.025651257485151291,
7.2225000000000001,0.01490513514727354,
7.2249999999999996,-0.0040388107299804688,
7.2275,-0.012116432189941406,
7.2300000000000004,-0.019280513748526573,
7.2324999999999999,-0.02569933794438839,
7.2350000000000003,-0.036998391151428223,
7.2374999999999998,-0.042167108505964279,
7.2400000000000002,-0.047119460999965668,
7.2424999999999997,-0.05185544490814209,
7.2450000000000001,-0.060293674468994141,
7.2474999999999996,-0.063683390617370605,
7.25,-0.066303811967372894,
7.2525000000000004,-0.068082809448242188,
7.2549999999999999,-0.069284841418266296,
7.2575000000000003,-0.068996354937553406,
7.2599999999999998,-0.068443417549133301,
7.2625000000000002,-0.067914530634880066,
7.2649999999999997,-0.06781836599111557,
7.2675000000000001,-0.06856362521648407,
7.2699999999999996,-0.069837771356105804,
7.2725,-0.071496568620204926,
7.2750000000000004,-0.075198814272880554,
7.2774999999999999,-0.076737403869628906,
7.2800000000000002,-0.077771149575710297,
7.2824999999999998,-0.078227922320365906,
7.2850000000000001,-0.077482663094997406,
7.2874999999999996,-0.076521039009094238,
7.29,-0.075511336326599121,
7.2925000000000004,-0.074189111590385437,
7.2949999999999999,-0.074237190186977386,
7.2975000000000003,-0.074862241744995117,
7.2999999999999998,-0.07596810907125473,
7.3025000000000002,-0.077410541474819183,
7.3049999999999997,-0.080391570925712585,
7.3075000000000001,-0.081473395228385925,
7.3099999999999996,-0.082026325166225433,
7.3125,-0.08200228214263916,
7.3150000000000004,-0.080367527902126312,
7.3174999999999999,-0.079117417335510254,
7.3200000000000003,-0.077867314219474792,
7.3224999999999998,-0.076280638575553894,
7.3250000000000002,-0.076232552528381348,
7.3274999999999997,-0.076689325273036957,
7.3300000000000001,-0.077578827738761902,
7.3324999999999996,-0.078708730638027191,
7.335,-0.080656014382839203,
7.3375000000000004,-0.081040665507316589,
7.3399999999999999,-0.080848336219787598,
7.3425000000000002,-0.078588530421257019,
7.3449999999999998,-0.076761446893215179,
7.3475000000000001,-0.074742041528224945,
7.3499999999999996,-0.072746679186820984,
7.3525,-0.069669485092163086,
7.3550000000000004,-0.068779990077018738,
7.3574999999999999,-0.068323217332363129,
7.3600000000000003,-0.068203017115592957,
7.3624999999999998,-0.068227052688598633,
7.3650000000000002,-0.067938566207885742,
7.3674999999999997,-0.067313514649868011,
7.3700000000000001,-0.066279768943786621,
7.3724999999999996,-0.064885422587394714,
7.375,-0.061423581093549728,
7.3775000000000004,-0.059764783829450607,
7.3799999999999999,-0.058370433747768402,
7.3825000000000003,-0.056855879724025726,
7.3849999999999998,-0.05675971508026123,
7.3875000000000002,-0.057000122964382172,
7.3899999999999997,-0.05738477036356926,
7.3925000000000001,-0.057913661003112793,
7.3949999999999996,-0.057769417762756348,
7.3975,-0.05721648782491684,
7.4000000000000004,-0.056326985359191895,
7.4024999999999999,-0.053778689354658127,
7.4050000000000002,-0.052456460893154144,
7.4074999999999998,-0.051326554268598557,
7.4100000000000001,-0.050509177148342133,
7.4124999999999996,-0.050052404403686523,
7.415,-0.05043705552816391,
7.4175000000000004,-0.051086150109767914,
7.4199999999999999,-0.051927566528320312,
7.4225000000000003,-0.053538285195827484,
7.4249999999999998,-0.054115258157253265,
7.4275000000000002,-0.054379701614379883,
7.4299999999999997,-0.054355662316083908,
7.4325000000000001,-0.05401909351348877,
7.4349999999999996,-0.052672825753688812,
7.4375,-0.05180736631155014,
7.4400000000000004,-0.050941906869411469,
7.4424999999999999,-0.049571596086025238,
7.4450000000000003,-0.049186944961547852,
7.4474999999999998,-0.049066744744777679,
7.4500000000000002,-0.049162905663251877,
7.4524999999999997,-0.049956243485212326,
7.4550000000000001,-0.050485134124755859,
7.4574999999999996,-0.051014028489589691,
7.46,-0.051446758210659027,
7.4625000000000004,-0.051783323287963867,
7.4649999999999999,-0.051639080047607422,
7.4675000000000002,-0.051302514970302582,
7.4699999999999998,-0.050821702927350998,
7.4725000000000001,-0.049715839326381683,
7.4749999999999996,-0.049259066581726074,
7.4775,-0.048946540802717209,
7.4800000000000004,-0.048778258264064789,
7.4824999999999999,-0.048994623124599457,
7.4850000000000003,-0.049259066581726074,
7.4874999999999998,-0.049547553062438965,
7.4900000000000002,-0.049836039543151855,
7.4924999999999997,-0.050100486725568771,
7.4950000000000001,-0.050100486725568771,
7.4974999999999996,-0.050004325807094574,
7.5,-0.049860082566738129,
7.5025000000000004,-0.049547553062438965,
7.5049999999999999,-0.049427352845668793,
7.5075000000000003,-0.049283109605312347,
7.5099999999999998,-0.049114823341369629,
7.5125000000000002,-0.048417650163173676,
7.5149999999999997,-0.047792594879865646,
7.5175000000000001,-0.046903096139431,
7.5199999999999996,-0.045749150216579437,
7.5225,-0.042816203087568283,
7.5250000000000004,-0.041181445121765137,
7.5274999999999999,-0.039522647857666016,
7.5300000000000002,-0.037935972213745117,
7.5324999999999998,-0.035363636910915375,
7.5350000000000001,-0.03447413444519043,
7.5374999999999996,-0.033873122185468674,
7.54,-0.033560596406459808,
7.5425000000000004,-0.033752918243408203,
7.5449999999999999,-0.034185647964477539,
7.5475000000000003,-0.034714542329311371,
7.5499999999999998,-0.035291515290737152,
7.5525000000000002,-0.035796366631984711,
7.5549999999999997,-0.035892527550458908,
7.5575000000000001,-0.035147272050380707,
7.5599999999999996,-0.033656757324934006,
7.5625,-0.027983188629150391,
7.5650000000000004,-0.023776095360517502,
7.5674999999999999,-0.018799703568220139,
7.5700000000000003,-0.013246337883174419,
7.5724999999999998,-0.0019713244400918484,
7.5750000000000002,0.0029569864273071289,
7.5774999999999997,0.006875594612210989,
7.5800000000000001,0.0094238920137286186,
7.5824999999999996,0.0095440950244665146,
7.585,0.0069957971572875977,
7.5875000000000004,0.0028608243446797132,
7.5899999999999999,-0.0026444594841450453,
7.5925000000000002,-0.016371607780456543,
7.5949999999999998,-0.023824175819754601,
7.5975000000000001,-0.031204622238874435,
7.5999999999999996,-0.038152337074279785,
7.6025,-0.049860082566738129,
7.6050000000000004,-0.054283540695905685,
7.6074999999999999,-0.057721339166164398,
7.6100000000000003,-0.060173474252223969,
7.6124999999999998,-0.062697730958461761,
7.6150000000000002,-0.063058339059352875,
7.6174999999999997,-0.063034296035766602,
7.6200000000000001,-0.062721773982048035,
7.6224999999999996,-0.061351459473371506,
7.625,-0.060197513550519943,
7.6275000000000004,-0.05858679860830307,
7.6299999999999999,-0.056447189301252365,
7.6325000000000003,-0.050821702927350998,
7.6349999999999998,-0.047816634178161621,
7.6375000000000002,-0.045388542115688324,
7.6399999999999997,-0.044282674789428711,
7.6425000000000001,-0.049547553062438965,
7.6449999999999996,-0.057625174522399902,
7.6475,-0.070126257836818695,
7.6500000000000004,-0.087146960198879242,
7.6524999999999999,-0.13246338069438934,
7.6550000000000002,-0.15806655585765839,
7.6574999999999998,-0.1828523576259613,
7.6600000000000001,-0.20408014953136444,
7.6624999999999996,-0.22352895140647888,
7.665,-0.21559557318687439,
7.6675000000000004,-0.19222816824913025,
7.6699999999999999,-0.15157561004161835,
7.6725000000000003,-0.015650391578674316,
7.6749999999999998,0.077819228172302246,
7.6775000000000002,0.18467943370342255,
7.6799999999999997,0.30053079128265381,
7.6825000000000001,0.53521454334259033,
7.6849999999999996,0.64017558097839355,
