Data Set 1:Time(s),Data Set 1:EKG(mV),Data Set 1:Heart Rate(bpm)
0,-0.02952178381383419,91.603050231933594
0.0025000000000000001,-0.038777392357587814,
0.0050000000000000001,-0.047600269317626953,
0.0074999999999999997,-0.055437486618757248,
0.01,-0.061928432434797287,
0.012500000000000001,-0.066904827952384949,
0.014999999999999999,-0.073924660682678223,
0.017500000000000002,-0.074814163148403168,
0.02,-0.07563154399394989,
0.022499999999999999,-0.076665282249450684,
0.025000000000000001,-0.079526111483573914,
0.0275,-0.081088744103908539,
0.029999999999999999,-0.08241097629070282,
0.032500000000000001,-0.083252392709255219,
0.035000000000000003,-0.083060070872306824,
0.037499999999999999,-0.082218647003173828,
0.040000000000000001,-0.081305108964443207,
0.042500000000000003,-0.080752179026603699,
0.044999999999999998,-0.082531176507472992,
0.047500000000000001,-0.085367962718009949,
0.050000000000000003,-0.08952697366476059,
0.052499999999999998,-0.094743773341178894,
0.055,-0.10597070306539536,
0.057500000000000002,-0.11058648675680161,
0.059999999999999998,-0.11363963782787323,
0.0625,-0.1146012544631958,
0.065000000000000002,-0.1090959757566452,
0.067500000000000004,-0.10272523015737534,
0.070000000000000007,-0.094359122216701508,
0.072499999999999995,-0.084526538848876953,
0.074999999999999997,-0.06286601722240448,
0.077499999999999999,-0.052288174629211426,
0.080000000000000002,-0.042599838227033615,
0.082500000000000004,-0.034281812608242035,
0.085000000000000006,-0.023151040077209473,
0.087499999999999994,-0.020843148231506348,
0.089999999999999997,-0.020843148231506348,
0.092499999999999999,-0.023151040077209473,
0.095000000000000001,-0.034161608666181564,
0.097500000000000003,-0.042311351746320724,
0.10000000000000001,-0.051663123071193695,
0.10249999999999999,-0.061736106872558594,
0.105,-0.081858038902282715,
0.1075,-0.09094536304473877,
0.11,-0.098878741264343262,
0.1125,-0.10541777312755585,
0.115,-0.11404832452535629,
0.11749999999999999,-0.1162840947508812,
0.12,-0.11734187602996826,
0.1225,-0.11743804067373276,
0.125,-0.1152503490447998,
0.1275,-0.11318286508321762,
0.13,-0.11049032211303711,
0.13250000000000001,-0.10719677060842514,
0.13500000000000001,-0.098950862884521484,
0.13750000000000001,-0.094166800379753113,
0.14000000000000001,-0.089214444160461426,
0.14249999999999999,-0.084334217011928558,
0.14499999999999999,-0.076064273715019226,
0.14749999999999999,-0.07317940890789032,
0.14999999999999999,-0.071376368403434753,
0.1525,-0.07072727382183075,
0.155,-0.072313949465751648,
0.1575,-0.074044868350028992,
0.16,-0.075895987451076508,
0.16250000000000001,-0.077434584498405457,
0.16500000000000001,-0.07808367908000946,
0.16750000000000001,-0.076641246676445007,
0.17000000000000001,-0.073828503489494324,
0.17249999999999999,-0.069693528115749359,
0.17499999999999999,-0.058274269104003906,
0.17749999999999999,-0.051711201667785645,
0.17999999999999999,-0.045124094933271408,
0.1825,-0.039065878838300705,
0.185,-0.030170878395438194,
0.1875,-0.028103392571210861,
0.19,-0.027887027710676193,
0.1925,-0.029593905434012413,
0.19500000000000001,-0.038368701934814453,
0.19750000000000001,-0.044931769371032715,
0.20000000000000001,-0.052456460893154144,
0.20250000000000001,-0.060558121651411057,
0.20499999999999999,-0.077025890350341797,
0.20749999999999999,-0.084790989756584167,
0.20999999999999999,-0.092003151774406433,
0.21249999999999999,-0.098590254783630371,
0.215,-0.1100335568189621,
0.2175,-0.11510610580444336,
0.22,-0.11993825435638428,
0.2225,-0.12465020269155502,
0.22500000000000001,-0.1339058130979538,
0.22750000000000001,-0.13835331797599792,
0.23000000000000001,-0.14251232147216797,
0.23250000000000001,-0.1461184024810791,
0.23499999999999999,-0.15066206455230713,
0.23749999999999999,-0.15114288032054901,
0.23999999999999999,-0.15037357807159424,
0.24249999999999999,-0.14842629432678223,
0.245,-0.1429450511932373,
0.2475,-0.14090161025524139,
0.25,-0.14063715934753418,
0.2525,-0.14325758814811707,
0.255,-0.16131202876567841,
0.25750000000000001,-0.17804424464702606,
0.26000000000000001,-0.20004133880138397,
0.26250000000000001,-0.22663018107414246,
0.26500000000000001,-0.28752487897872925,
0.26750000000000002,-0.31719088554382324,
0.27000000000000002,-0.34228920936584473,
0.27250000000000002,-0.3593820333480835,
0.27500000000000002,-0.35577595233917236,
0.27750000000000002,-0.32894670963287354,
0.28000000000000003,-0.28250038623809814,
0.28249999999999997,-0.21552345156669617,
0.28499999999999998,-0.023247202858328819,
0.28749999999999998,0.096474692225456238,
0.28999999999999998,0.22559642791748047,
0.29249999999999998,0.35750687122344971,
0.29499999999999998,0.5990181565284729,
0.29749999999999999,0.69263201951980591,
0.29999999999999999,0.75847905874252319,
0.30249999999999999,0.79115015268325806,
0.30499999999999999,0.74645876884460449,
0.3075,0.6707310676574707,
0.31,0.56507289409637451,
0.3125,0.43664833903312683,
0.315,0.1475127637386322,
0.3175,0.0057456893846392632,
0.32000000000000001,-0.12275099754333496,
0.32250000000000001,-0.2315344512462616,
0.32500000000000001,-0.37580174207687378,
0.32750000000000001,-0.41042011976242065,
0.33000000000000002,-0.42308947443962097,
0.33250000000000002,-0.41804096102714539,
0.33500000000000002,-0.37498435378074646,
0.33750000000000002,-0.34673672914505005,
0.34000000000000002,-0.31930646300315857,
0.34250000000000003,-0.29526591300964355,
0.34499999999999997,-0.26194572448730469,
0.34749999999999998,-0.25259396433830261,
0.34999999999999998,-0.2470165491104126,
0.35249999999999998,-0.24405956268310547,
0.35499999999999998,-0.24158339202404022,
0.35749999999999998,-0.24040541052818298,
0.35999999999999999,-0.23867449164390564,
0.36249999999999999,-0.2361983060836792,
0.36499999999999999,-0.22908231616020203,
0.36749999999999999,-0.22461077570915222,
0.37,-0.21968245506286621,
0.3725,-0.2143695056438446,
0.375,-0.20311853289604187,
0.3775,-0.1974930465221405,
0.38,-0.19215604662895203,
0.38250000000000001,-0.18732389807701111,
0.38500000000000001,-0.17999152839183807,
0.38750000000000001,-0.17765960097312927,
0.39000000000000001,-0.17616908252239227,
0.39250000000000002,-0.17527958750724792,
0.39500000000000002,-0.17400543391704559,
0.39750000000000002,-0.17282745242118835,
0.40000000000000002,-0.17090420424938202,
0.40250000000000002,-0.16799530386924744,
0.40500000000000003,-0.15938878059387207,
0.40749999999999997,-0.15402774512767792,
0.40999999999999998,-0.1484503448009491,
0.41249999999999998,-0.14299313724040985,
0.41499999999999998,-0.1337134838104248,
0.41749999999999998,-0.13025164604187012,
0.41999999999999998,-0.1275591105222702,
0.42249999999999999,-0.12551566958427429,
0.42499999999999999,-0.12207786738872528,
0.42749999999999999,-0.12003441900014877,
0.42999999999999999,-0.11736591905355453,
0.4325,-0.11388003826141357,
0.435,-0.10423978418111801,
0.4375,-0.098205611109733582,
0.44,-0.09164254367351532,
0.4425,-0.084766946732997894,
0.44500000000000001,-0.07106383889913559,
0.44750000000000001,-0.064596936106681824,
0.45000000000000001,-0.058514676988124847,
0.45250000000000001,-0.052817068994045258,
0.45500000000000002,-0.042263269424438477,
0.45750000000000002,-0.037118595093488693,
0.46000000000000002,-0.031853716820478439,
0.46250000000000002,-0.026300352066755295,
0.46500000000000002,-0.013823310844600201,
0.46750000000000003,-0.0067553920671343803,
0.46999999999999997,0.0008895000210031867,
0.47249999999999998,0.009015202522277832,
0.47499999999999998,0.02632439136505127,
0.47749999999999998,0.035147272050380707,
0.47999999999999998,0.0438259057700634,
0.48249999999999998,0.05214393138885498,
0.48499999999999999,0.067000985145568848,
0.48749999999999999,0.073323652148246765,
0.48999999999999999,0.078852973878383636,
0.49249999999999999,0.083613000810146332,
0.495,0.091281935572624207,
0.4975,0.094503365457057953,
0.5,0.097484394907951355,
0.50249999999999995,0.10036925971508026,
0.505,0.10604282468557358,
0.50749999999999995,0.10880748927593231,
0.51000000000000001,0.1113317459821701,
0.51249999999999996,0.11344730854034424,
0.51500000000000001,0.11565904319286346,
0.51749999999999996,0.11527439206838608,
0.52000000000000002,0.11366367340087891,
0.52249999999999996,0.1106826514005661,
0.52500000000000002,0.10022501647472382,
0.52749999999999997,0.092772446572780609,
0.53000000000000003,0.083925530314445496,
0.53249999999999997,0.073780417442321777,
0.53500000000000003,0.050388973206281662,
0.53749999999999998,0.037479203194379807,
0.54000000000000004,0.024088621139526367,
0.54249999999999998,0.010385513305664062,
0.54500000000000004,-0.017140906304121017,
0.54749999999999999,-0.03060360811650753,
0.55000000000000004,-0.04370570182800293,
0.55249999999999999,-0.056326985359191895,
0.55500000000000005,-0.079790554940700531,
0.5575,-0.090512633323669434,
0.56000000000000005,-0.10051350295543671,
0.5625,-0.10981719195842743,
0.56499999999999995,-0.12626092135906219,
0.5675,-0.13342499732971191,
0.56999999999999995,-0.1399640291929245,
0.57250000000000001,-0.14587800204753876,
0.57499999999999996,-0.15604715049266815,
0.57750000000000001,-0.16037444770336151,
0.57999999999999996,-0.16422092914581299,
0.58250000000000002,-0.16761064529418945,
0.58499999999999996,-0.17292360961437225,
0.58750000000000002,-0.17484685778617859,
0.58999999999999997,-0.1762412041425705,
0.59250000000000003,-0.17717878520488739,
0.59499999999999997,-0.17780384421348572,
0.59750000000000003,-0.17768363654613495,
0.59999999999999998,-0.17746727168560028,
0.60250000000000004,-0.17727494239807129,
0.60499999999999998,-0.17729899287223816,
0.60750000000000004,-0.17768363654613495,
0.60999999999999999,-0.17828464508056641,
0.61250000000000004,-0.17910203337669373,
0.61499999999999999,-0.18085698783397675,
0.61750000000000005,-0.18160223960876465,
0.62,-0.18213114142417908,
0.62250000000000005,-0.1823955774307251,
0.625,-0.18201093375682831,
0.62749999999999995,-0.18140992522239685,
0.63,-0.18064062297344208,
0.63249999999999995,-0.17975112795829773,
0.63500000000000001,-0.17780384421348572,
0.63749999999999996,-0.17684221267700195,
0.64000000000000001,-0.17588059604167938,
0.64249999999999996,-0.17491897940635681,
0.64500000000000002,-0.17301976680755615,
0.64749999999999996,-0.17205815017223358,
0.65000000000000002,-0.17114460468292236,
0.65249999999999997,-0.17027914524078369,
0.65500000000000003,-0.16890883445739746,
0.65749999999999997,-0.16852419078350067,
0.66000000000000003,-0.16833186149597168,
0.66249999999999998,-0.16835591197013855,
0.66500000000000004,-0.16881267726421356,
0.66749999999999998,-0.16907712817192078,
0.67000000000000004,-0.16922137141227722,
0.67249999999999999,-0.169149249792099,
0.67500000000000004,-0.16813954710960388,
0.67749999999999999,-0.16712984442710876,
0.68000000000000005,-0.16583165526390076,
0.6825,-0.16431710124015808,
0.68500000000000005,-0.16099950671195984,
0.6875,-0.15941283106803894,
0.68999999999999995,-0.15797039866447449,
0.6925,-0.15672028064727783,
0.69499999999999995,-0.15482108294963837,
0.69750000000000001,-0.15414795279502869,
0.69999999999999996,-0.15361905097961426,
0.70250000000000001,-0.15313825011253357,
0.70499999999999996,-0.1522727906703949,
0.70750000000000002,-0.15181601047515869,
0.70999999999999996,-0.15131115913391113,
0.71250000000000002,-0.15075823664665222,
0.71499999999999997,-0.14943599700927734,
0.71750000000000003,-0.14871478080749512,
0.71999999999999997,-0.14794549345970154,
0.72250000000000003,-0.14715215563774109,
0.72499999999999998,-0.14556547999382019,
0.72750000000000004,-0.14479617774486542,
0.72999999999999998,-0.14405092597007751,
0.73250000000000004,-0.14332970976829529,
0.73499999999999999,-0.14181515574455261,
0.73750000000000004,-0.14099776744842529,
0.73999999999999999,-0.14015635848045349,
0.74250000000000005,-0.13926684856414795,
0.745,-0.13753592967987061,
0.74750000000000005,-0.13681471347808838,
0.75,-0.13626179099082947,
0.75249999999999995,-0.13594925403594971,
0.755,-0.13602137565612793,
0.75749999999999995,-0.13638198375701904,
0.76000000000000001,-0.13683876395225525,
0.76249999999999996,-0.13770422339439392,
0.76500000000000001,-0.13787250220775604,
0.76749999999999996,-0.1377282589673996,
0.77000000000000002,-0.13727149367332458,
0.77249999999999996,-0.13643006980419159,
0.77500000000000002,-0.13368944823741913,
0.77749999999999997,-0.13188640773296356,
0.78000000000000003,-0.12984296679496765,
0.78249999999999997,-0.12525121867656708,
0.78500000000000003,-0.12279908359050751,
0.78749999999999998,-0.12027482688426971,
0.79000000000000004,-0.11775057017803192,
0.79249999999999998,-0.1130145788192749,
0.79500000000000004,-0.11101921647787094,
0.79749999999999999,-0.10938446223735809,
0.80000000000000004,-0.10823051631450653,
0.80249999999999999,-0.10774970054626465,
0.80500000000000005,-0.10842283815145493,
0.8075,-0.10960082709789276,
0.81000000000000005,-0.11113941669464111,
0.8125,-0.11436085402965546,
0.81499999999999995,-0.1155388355255127,
0.8175,-0.11606772989034653,
0.81999999999999995,-0.11570712178945541,
0.82250000000000001,-0.111620232462883,
0.82499999999999996,-0.10779778659343719,
0.82750000000000001,-0.10282139480113983,
0.82999999999999996,-0.096883378922939301,
0.83250000000000002,-0.083011984825134277,
0.83499999999999996,-0.075775787234306335,
0.83750000000000002,-0.068804025650024414,
0.83999999999999997,-0.06245732307434082,
0.84250000000000003,-0.053009390830993652,
0.84499999999999997,-0.05043705552816391,
0.84750000000000003,-0.049499474465847015,
0.84999999999999998,-0.050268769264221191,
0.85250000000000004,-0.056543350219726562,
0.85499999999999998,-0.061712067574262619,
0.85750000000000004,-0.067890487611293793,
0.85999999999999999,-0.074766084551811218,
0.86250000000000004,-0.089262530207633972,
0.86499999999999999,-0.096234284341335297,
0.86750000000000005,-0.10267715156078339,
0.87,-0.10839879512786865,
0.87250000000000005,-0.11726975440979004,
0.875,-0.12044310569763184,
0.87749999999999995,-0.12287120521068573,
0.88,-0.1246742457151413,
0.88249999999999995,-0.12703022360801697,
0.88500000000000001,-0.12772738933563232,
0.88749999999999996,-0.12808799743652344,
0.89000000000000001,-0.12803992629051208,
0.89249999999999996,-0.1260685920715332,
0.89500000000000002,-0.12388090789318085,
0.89749999999999996,-0.12089987844228745,
0.90000000000000002,-0.11731784045696259,
0.90249999999999997,-0.11032204329967499,
0.90500000000000003,-0.10842283815145493,
0.90749999999999997,-0.10885556787252426,
0.91000000000000003,-0.11262993514537811,
0.91249999999999998,-0.13308843970298767,
0.91500000000000004,-0.15042166411876678,
0.91749999999999998,-0.17205815017223358,
0.92000000000000004,-0.19686798751354218,
0.92249999999999999,-0.24848303198814392,
0.92500000000000004,-0.27011951804161072,
0.92749999999999999,-0.28485637903213501,
0.93000000000000005,-0.28937599062919617,
0.9325,-0.25557500123977661,
0.93500000000000005,-0.21237413585186005,
0.9375,-0.14982065558433533,
0.93999999999999995,-0.068058773875236511,
0.9425,0.14549335837364197,
0.94499999999999995,0.26954254508018494,
0.94750000000000001,0.3975103497505188,
0.94999999999999996,0.52232885360717773,
0.95250000000000001,0.73164981603622437,
0.95499999999999996,0.8014635443687439,
0.95750000000000002,0.84009671211242676,
0.95999999999999996,0.84401530027389526,
0.96250000000000002,0.74609816074371338,
0.96499999999999997,0.6502004861831665,
0.96750000000000003,0.53107959032058716,
0.96999999999999997,0.39700549840927124,
0.97250000000000003,0.120755635201931,
0.97499999999999998,-0.0040388107299804688,
0.97750000000000004,-0.11063456535339355,
0.97999999999999998,-0.1947043389081955,
0.98250000000000004,-0.28992891311645508,
0.98499999999999999,-0.30411285161972046,
0.98750000000000004,-0.30084332823753357,
0.98999999999999999,-0.28500062227249146,
0.99250000000000005,-0.23521265387535095,
0.995,-0.20956139266490936,
0.99750000000000005,-0.18717965483665466,
1,-0.1693415641784668,91.836738586425781
1.0024999999999999,-0.14758488535881042,
1.0049999999999999,-0.14193534851074219,
1.0075000000000001,-0.13808886706829071,
1.01,-0.13486742973327637,
1.0125,-0.12712638080120087,
1.0149999999999999,-0.12195765972137451,
1.0175000000000001,-0.11613985151052475,
1.02,-0.11010567843914032,
1.0225,-0.099191270768642426,
1.0249999999999999,-0.094984173774719238,
1.0275000000000001,-0.091810822486877441,
1.03,-0.08947889506816864,
1.0325,-0.086353622376918793,
1.0349999999999999,-0.08486311137676239,
1.0375000000000001,-0.083036027848720551,
1.04,-0.080704092979431152,
1.0425,-0.074693962931632996,
1.0449999999999999,-0.071304246783256531,
1.0475000000000001,-0.067938566207885742,
1.05,-0.064789257943630219,
1.0525,-0.059692662209272385,
1.0549999999999999,-0.057769417762756348,
1.0575000000000001,-0.0561346635222435,
1.0600000000000001,-0.054668188095092773,
1.0625,-0.051470797508955002,
1.0649999999999999,-0.049547553062438965,
1.0674999999999999,-0.047335825860500336,
1.0700000000000001,-0.044859647750854492,
1.0725,-0.03937840461730957,
1.075,-0.036541622132062912,
1.0774999999999999,-0.033704839646816254,
1.0800000000000001,-0.030868053436279297,
1.0825,-0.025122364982962608,
1.085,-0.022093256935477257,
1.0874999999999999,-0.01891990564763546,
1.0900000000000001,-0.015554229728877544,
1.0925,-0.0083901491016149521,
1.095,-0.004735986702144146,
1.0974999999999999,-0.0011299054604023695,
1.1000000000000001,0.0024040541611611843,
1.1025,0.0092796487733721733,
1.105,0.012741486541926861,
1.1074999999999999,0.016395648941397667,
1.1100000000000001,0.020386379212141037,
1.1125,0.029810270294547081,
1.115,0.035387676209211349,
1.1174999999999999,0.041493974626064301,
1.1200000000000001,0.048057042062282562,
1.1225000000000001,0.061928432434797287,
1.125,0.068924233317375183,
1.1274999999999999,0.075775787234306335,
1.1299999999999999,0.082435011863708496,
1.1325000000000001,0.095152460038661957,
1.135,0.10128279775381088,
1.1375,0.10738909244537354,
1.1399999999999999,0.11351943016052246,
1.1425000000000001,0.12599647045135498,
1.145,0.13234317302703857,
1.1475,0.13861775398254395,
1.1499999999999999,0.14477214217185974,
1.1525000000000001,0.15611927211284637,
1.155,0.16102354228496552,
1.1575,0.16530275344848633,
1.1599999999999999,0.16881267726421356,
1.1625000000000001,0.17338037490844727,
1.165,0.17436604201793671,
1.1675,0.1745583713054657,
1.1699999999999999,0.17390927672386169,
1.1725000000000001,0.17032723128795624,
1.175,0.16741833090782166,
1.1775,0.1637401282787323,
1.1799999999999999,0.15924453735351562,
1.1825000000000001,0.14734447002410889,
1.1850000000000001,0.13974766433238983,
1.1875,0.13094882667064667,
1.1899999999999999,0.12092392146587372,
1.1924999999999999,0.097484394907951355,
1.1950000000000001,0.08445441722869873,
1.1975,0.070895552635192871,
1.2,0.057192444801330566,
1.2024999999999999,0.04365762323141098,
1.2050000000000001,0.018270811066031456,
1.2075,0.0067794322967529297,
1.21,-0.0038464865647256374,
1.2124999999999999,-0.022790431976318359,
1.2150000000000001,-0.031445026397705078,
1.2175,-0.039787095040082932,
1.22,-0.04798492044210434,
1.2224999999999999,-0.063971877098083496,
1.2250000000000001,-0.07168889045715332,
1.2275,-0.078997217118740082,
1.23,-0.085728570818901062,
1.2324999999999999,-0.096715092658996582,
1.2350000000000001,-0.1007058247923851,
1.2375,-0.10363876819610596,
1.24,-0.10558605194091797,
1.2424999999999999,-0.10702848434448242,
1.2450000000000001,-0.1068602055311203,
1.2475000000000001,-0.10633131116628647,
1.25,-0.10561009496450424,
1.2524999999999999,-0.10411958396434784,
1.2549999999999999,-0.10349452495574951,
1.2575000000000001,-0.10296563804149628,
1.26,-0.10260502994060516,
1.2625,-0.10226845741271973,
1.2649999999999999,-0.102292500436306,
1.2675000000000001,-0.10241270065307617,
1.27,-0.10265310853719711,
1.2725,-0.10330220311880112,
1.2749999999999999,-0.10363876819610596,
1.2775000000000001,-0.10395129770040512,
1.28,-0.10419170558452606,
1.2825,-0.10443210601806641,
1.2849999999999999,-0.10438402742147446,
1.2875000000000001,-0.10426382720470428,
1.29,-0.10404746234416962,
1.2925,-0.10351856797933578,
1.2949999999999999,-0.10323008149862289,
1.2975000000000001,-0.10298967361450195,
1.3,-0.10277330875396729,
1.3025,-0.10253290832042694,
1.3049999999999999,-0.10246078670024872,
1.3075000000000001,-0.10243674367666245,
1.3100000000000001,-0.1023886650800705,
1.3125,-0.10205209255218506,
1.3149999999999999,-0.10166744887828827,
1.3174999999999999,-0.10106643289327621,
1.3200000000000001,-0.10024905204772949,
1.3225,-0.097917124629020691,
1.325,-0.096498727798461914,
1.3274999999999999,-0.094984173774719238,
1.3300000000000001,-0.093493662774562836,
1.3325,-0.090921327471733093,
1.335,-0.089983746409416199,
1.3374999999999999,-0.089286565780639648,
1.3400000000000001,-0.088877879083156586,
1.3425,-0.088589392602443695,
1.345,-0.088517270982265472,
1.3474999999999999,-0.0883970707654953,
1.3500000000000001,-0.088060498237609863,
1.3525,-0.086473822593688965,
1.355,-0.085151597857475281,
1.3574999999999999,-0.083444714546203613,
1.3600000000000001,-0.081425309181213379,
1.3625,-0.076881647109985352,
1.365,-0.0745977982878685,
1.3674999999999999,-0.07248222827911377,
1.3700000000000001,-0.070703230798244476,
1.3725000000000001,-0.068347260355949402,
1.375,-0.06781836599111557,
1.3774999999999999,-0.067674122750759125,
1.3799999999999999,-0.067770287394523621,
1.3825000000000001,-0.06815493106842041,
1.385,-0.068106852471828461,
1.3875,-0.067746244370937347,
1.3899999999999999,-0.067025028169155121,
1.3925000000000001,-0.064572893083095551,
1.395,-0.063058339059352875,
1.3975,-0.061591863632202148,
1.3999999999999999,-0.060341756790876389,
1.4025000000000001,-0.058995485305786133,
1.405,-0.059019528329372406,
1.4075,-0.059452258050441742,
1.4099999999999999,-0.060149431228637695,
1.4125000000000001,-0.061663985252380371,
1.415,-0.062096714973449707,
1.4175,-0.06212075799703598,
1.4199999999999999,-0.061663985252380371,
1.4225000000000001,-0.059308014810085297,
1.425,-0.05755305290222168,
1.4275,-0.055581729859113693,
1.4299999999999999,-0.053466163575649261,
1.4325000000000001,-0.049186944961547852,
1.4350000000000001,-0.047143500298261642,
1.4375,-0.045172177255153656,
1.4399999999999999,-0.04336913675069809,
1.4424999999999999,-0.04046022891998291,
1.4450000000000001,-0.039498608559370041,
1.4475,-0.038969717919826508,
1.45,-0.038969717919826508,
1.4524999999999999,-0.040267907083034515,
1.4550000000000001,-0.041277609765529633,
1.4575,-0.042191147804260254,
1.46,-0.042671959847211838,
1.4624999999999999,-0.041013162583112717,
1.4650000000000001,-0.038344662636518478,
1.4675,-0.034329891204833984,
1.47,-0.029113095253705978,
1.4724999999999999,-0.01629948616027832,
1.4750000000000001,-0.0096883382648229599,
1.4775,-0.0037262837868183851,
1.48,0.0010818243026733398,
1.4824999999999999,0.0055533647537231445,
1.4850000000000001,0.0048561892472207546,
1.4875,0.002283851383253932,
1.49,-0.0018992027034983039,
1.4924999999999999,-0.013438662514090538,
1.4950000000000001,-0.01983344554901123,
1.4975000000000001,-0.026108026504516602,
1.5,-0.031877756118774414,
1.5024999999999999,-0.041301649063825607,
1.5049999999999999,-0.044859647750854492,
1.5075000000000001,-0.047792594879865646,
1.51,-0.050220690667629242,
1.5125,-0.054235458374023438,
1.5149999999999999,-0.056110620498657227,
1.5175000000000001,-0.057985782623291016,
1.52,-0.05983690544962883,
1.5225,-0.063178539276123047,
1.5249999999999999,-0.064380571246147156,
1.5275000000000001,-0.064981579780578613,
1.53,-0.064837336540222168,
1.5325,-0.061976514756679535,
1.5349999999999999,-0.059356093406677246,
1.5375000000000001,-0.05630294606089592,
1.54,-0.053297877311706543,
1.5425,-0.050340890884399414,
1.5449999999999999,-0.052071809768676758,
1.5475000000000001,-0.057072244584560394,
1.55,-0.06599128246307373,
1.5525,-0.096522770822048187,
1.5549999999999999,-0.11741399765014648,
1.5575000000000001,-0.1406131237745285,
1.5600000000000001,-0.16426901519298553,
1.5625,-0.20295023918151855,
1.5649999999999999,-0.21203756332397461,
1.5674999999999999,-0.21013836562633514,
1.5700000000000001,-0.19434373080730438,
1.5725,-0.112269327044487,
1.575,-0.043873988091945648,
1.5774999999999999,0.042167108505964279,
1.5800000000000001,0.14361819624900818,
1.5825,0.37657102942466736,
1.585,0.49667757749557495,
1.5874999999999999,0.61005276441574097,
1.5900000000000001,0.70936423540115356,
1.5925,0.83889466524124146,
1.595,0.85875213146209717,
1.5974999999999999,0.84495288133621216,
1.6000000000000001,0.79771322011947632,
1.6025,0.61613500118255615,
1.605,0.49393695592880249,
1.6074999999999999,0.36140143871307373,
1.6100000000000001,0.22727927565574646,
1.6125,-0.013246337883174419,
1.615,-0.10693232715129852,
1.6174999999999999,-0.17782787978649139,
1.6200000000000001,-0.22489926218986511,
1.6225000000000001,-0.24932444095611572,
1.625,-0.24338643252849579,
1.6274999999999999,-0.22206246852874756,
1.6299999999999999,-0.19489666819572449,
1.6325000000000001,-0.13945917785167694,
1.635,-0.11686106771230698,
1.6375,-0.099527835845947266,
1.6399999999999999,-0.087603732943534851,
1.6425000000000001,-0.076617203652858734,
1.645,-0.07493436336517334,
1.6475,-0.073948703706264496,
1.6499999999999999,-0.072578392922878265,
1.6525000000000001,-0.066015325486660004,
1.655,-0.060558121651411057,
1.6575,-0.054043136537075043,
1.6599999999999999,-0.046975217759609222,
1.6625000000000001,-0.033897161483764648,
1.665,-0.029016932472586632,
1.6675,-0.025795500725507736,
1.6699999999999999,-0.024377107620239258,
1.6725000000000001,-0.026468634605407715,
1.675,-0.029329460114240646,
1.6775,-0.032719176262617111,
1.6799999999999999,-0.036156974732875824,
1.6825000000000001,-0.041013162583112717,
1.6850000000000001,-0.041686296463012695,
1.6875,-0.040941040962934494,
1.6899999999999999,-0.038777392357587814,
1.6924999999999999,-0.030819972977042198,
1.6950000000000001,-0.025675296783447266,
1.6975,-0.02029021643102169,
1.7,-0.014977256767451763,
1.7024999999999999,-0.0058658919297158718,
1.7050000000000001,-0.0024040541611611843,
1.7075,0.00028848648071289062,
1.71,0.0023319325409829617,
1.7124999999999999,0.0052167973481118679,
1.7150000000000001,0.0065149865113198757,
1.7175,0.0080776214599609375,
1.72,0.010048946365714073,
1.7224999999999999,0.015530189499258995,
1.7250000000000001,0.019040107727050781,
1.7275,0.022934675216674805,
1.73,0.027045607566833496,
1.7324999999999999,0.035459797829389572,
1.7350000000000001,0.039522647857666016,
1.7375,0.043465297669172287,
1.74,0.047287743538618088,
1.7424999999999999,0.05505283921957016,
1.7450000000000001,0.059259932488203049,
1.7475000000000001,0.063899755477905273,
1.75,0.069020390510559082,
1.7524999999999999,0.080896422266960144,
1.7549999999999999,0.087603732943534851,
1.7575000000000001,0.094671651721000671,
1.76,0.10195593535900116,
1.7625,0.11657258123159409,
1.7649999999999999,0.12361645698547363,
1.7675000000000001,0.13034781813621521,
1.77,0.13671855628490448,
1.7725,0.148354172706604,
1.7749999999999999,0.15369117259979248,
1.7775000000000001,0.15878777205944061,
1.78,0.16369204223155975,
1.7825,0.17323613166809082,
1.7849999999999999,0.17790000140666962,
1.7875000000000001,0.18253982067108154,
1.79,0.18708348274230957,
1.7925,0.19148290157318115,
1.7949999999999999,0.19951245188713074,
1.7975000000000001,0.20287811756134033,
1.8,0.20561873912811279,
1.8025,0.20876805484294891,
1.8049999999999999,0.20893633365631104,
1.8075000000000001,0.20802280306816101,
1.8100000000000001,0.20602743327617645,
1.8125,0.19867102801799774,
1.8149999999999999,0.19338211417198181,
1.8174999999999999,0.18708348274230957,
1.8200000000000001,0.17979919910430908,
1.8225,0.16246597468852997,
1.825,0.1524651050567627,
1.8274999999999999,0.1415507048368454,
1.8300000000000001,0.12981891632080078,
1.8325,0.10399937629699707,
1.835,0.090224146842956543,
1.8374999999999999,0.076064273715019226,
1.8400000000000001,0.06183227151632309,
1.8425,0.034233730286359787,
1.845,0.021420121192932129,
1.8474999999999999,0.0095681352540850639,
1.8500000000000001,-0.0011779865017160773,
1.8525,-0.010722081176936626,
1.855,-0.026348432525992393,
1.8574999999999999,-0.032671093940734863,
1.8600000000000001,-0.038248501718044281,
1.8625,-0.047888755798339844,
1.865,-0.052288174629211426,
1.8674999999999999,-0.056519310921430588,
1.8700000000000001,-0.060654282569885254,
1.8725000000000001,-0.068419381976127625,
1.875,-0.071905255317687988,
1.8774999999999999,-0.075030528008937836,
1.8799999999999999,-0.077699027955532074,
1.8825000000000001,-0.081377230584621429,
1.885,-0.082338854670524597,
1.8875,-0.08269946277141571,
1.8899999999999999,-0.082555219531059265,
1.8925000000000001,-0.081016622483730316,
1.895,-0.079886719584465027,
1.8975,-0.078708730638027191,
1.8999999999999999,-0.077650949358940125,
1.9025000000000001,-0.076497003436088562,
1.905,-0.076593160629272461,
1.9075,-0.077242255210876465,
1.9099999999999999,-0.078372165560722351,
1.9125000000000001,-0.081737838685512543,
1.915,-0.083661079406738281,
1.9175,-0.085488162934780121,
1.9199999999999999,-0.087002716958522797,
1.9225000000000001,-0.088637471199035645,
1.925,-0.088637471199035645,
1.9275,-0.08810858428478241,
1.9299999999999999,-0.087171003222465515,
1.9325000000000001,-0.084718868136405945,
1.9350000000000001,-0.083516836166381836,
1.9375,-0.082531176507472992,
1.9399999999999999,-0.081858038902282715,
1.9424999999999999,-0.081617638468742371,
1.9450000000000001,-0.081978246569633484,
1.9475,-0.082579255104064941,
1.95,-0.083252392709255219,
1.9524999999999999,-0.084502503275871277,
1.9550000000000001,-0.08486311137676239,
1.9575,-0.084959268569946289,
1.96,-0.084718868136405945,
1.9624999999999999,-0.083300471305847168,
1.9650000000000001,-0.082098446786403656,
1.9675,-0.080656014382839203,
1.97,-0.078949138522148132,
1.9724999999999999,-0.074982449412345886,
1.9750000000000001,-0.072842836380004883,
1.9775,-0.070655152201652527,
1.98,-0.068539582192897797,
1.9824999999999999,-0.064909458160400391,
1.9850000000000001,-0.063587233424186707,
1.9875,-0.062721773982048035,
1.99,-0.062313079833984375,
1.9924999999999999,-0.062817931175231934,
1.9950000000000001,-0.06353914737701416,
1.9975000000000001,-0.064356528222560883,
2,-0.065053701400756836,93.203880310058594
2.0024999999999999,-0.065390273928642273,
2.0049999999999999,-0.064765214920043945,
2.0074999999999998,-0.063587233424186707,
2.0099999999999998,-0.061856310814619064,
2.0125000000000002,-0.05750497430562973,
2.0150000000000001,-0.055293243378400803,
2.0175000000000001,-0.053369998931884766,
2.02,-0.051903527230024338,
2.0225,-0.050749581307172775,
2.0249999999999999,-0.051014028489589691,
2.0274999999999999,-0.051735244691371918,
2.0299999999999998,-0.052672825753688812,
2.0325000000000002,-0.054499905556440353,
2.0350000000000001,-0.055028796195983887,
2.0375000000000001,-0.055173039436340332,
2.04,-0.054884552955627441,
2.0425,-0.053201716393232346,
2.0449999999999999,-0.051999688148498535,
2.0474999999999999,-0.050725542008876801,
2.0499999999999998,-0.049499474465847015,
2.0525000000000002,-0.047407947480678558,
2.0550000000000002,-0.046638648957014084,
2.0575000000000001,-0.046061675995588303,
2.0600000000000001,-0.045652985572814941,
2.0625,-0.045340459793806076,
2.0649999999999999,-0.045388542115688324,
2.0674999999999999,-0.045580863952636719,
2.0699999999999998,-0.045869350433349609,
2.0724999999999998,-0.046638648957014084,
2.0750000000000002,-0.046975217759609222,
2.0775000000000001,-0.04719158262014389,
2.0800000000000001,-0.047167539596557617,
2.0825,-0.046085715293884277,
2.085,-0.04490773007273674,
2.0874999999999999,-0.043297015130519867,
2.0899999999999999,-0.041301649063825607,
2.0924999999999998,-0.036565661430358887,
2.0950000000000002,-0.034089487046003342,
2.0975000000000001,-0.031757555902004242,
2.1000000000000001,-0.029714107513427734,
2.1025,-0.027165811508893967,
2.105,-0.026781162247061729,
2.1074999999999999,-0.027045607566833496,
2.1099999999999999,-0.027862986549735069,
2.1124999999999998,-0.030459364876151085,
2.1150000000000002,-0.031733512878417969,
2.1175000000000002,-0.032574933022260666,
2.1200000000000001,-0.032671093940734863,
2.1225000000000001,-0.029497742652893066,
2.125,-0.025963783264160156,
2.1274999999999999,-0.021155675873160362,
2.1299999999999999,-0.015289783477783203,
2.1324999999999998,-0.0019953649025410414,
2.1349999999999998,0.0044475002214312553,
2.1375000000000002,0.0099768247455358505,
2.1400000000000001,0.014087757095694542,
2.1425000000000001,0.016732215881347656,
2.145,0.014977256767451763,
2.1475,0.011299054138362408,
2.1499999999999999,0.0059860944747924805,
2.1524999999999999,-0.0076929731294512749,
2.1549999999999998,-0.015049378387629986,
2.1575000000000002,-0.022141337394714355,
2.1600000000000001,-0.028584202751517296,
2.1625000000000001,-0.038729310035705566,
2.165,-0.042359434068202972,
2.1675,-0.045172177255153656,
2.1699999999999999,-0.04735986515879631,
2.1724999999999999,-0.050725542008876801,
2.1749999999999998,-0.052240096032619476,
2.1775000000000002,-0.053730607032775879,
2.1800000000000002,-0.055149000138044357,
2.1825000000000001,-0.057072244584560394,
2.1850000000000001,-0.057072244584560394,
2.1875,-0.056014459580183029,
2.1899999999999999,-0.053706567734479904,
2.1924999999999999,-0.045196216553449631,
2.1949999999999998,-0.039450526237487793,
2.1974999999999998,-0.033464431762695312,
2.2000000000000002,-0.02815147303044796,
2.2025000000000001,-0.023848216980695724,
2.2050000000000001,-0.027237933129072189,
2.2075,-0.035700201988220215,
2.21,-0.049812000244855881,
2.2124999999999999,-0.094815894961357117,
2.2149999999999999,-0.12397706508636475,
2.2174999999999998,-0.15522977709770203,
2.2200000000000002,-0.18604974448680878,
2.2225000000000001,-0.23352980613708496,
2.2250000000000001,-0.24321815371513367,
2.2275,-0.23896297812461853,
2.23,-0.21780729293823242,
2.2324999999999999,-0.11705338954925537,
2.2349999999999999,-0.036373339593410492,
2.2374999999999998,0.06286601722240448,
2.2400000000000002,0.17751535773277283,
2.2425000000000002,0.43270570039749146,
2.2450000000000001,0.56000036001205444,
2.2475000000000001,0.67688548564910889,
2.25,0.7756199836730957,
2.2524999999999999,0.89175981283187866,
2.2549999999999999,0.89981341361999512,
2.2574999999999998,0.87204658985137939,
2.2599999999999998,0.80997389554977417,
2.2625000000000002,0.60166263580322266,
2.2650000000000001,0.46994447708129883,
2.2675000000000001,0.33163926005363464,
2.27,0.19576212763786316,
2.2725,-0.037575364112854004,
2.2749999999999999,-0.12400110810995102,
2.2774999999999999,-0.18674692511558533,
2.2799999999999998,-0.22605320811271667,
2.2825000000000002,-0.24504522979259491,
2.2850000000000001,-0.23307304084300995,
2.2875000000000001,-0.21314343810081482,
2.29,-0.18965582549571991,
2.2925,-0.14513275027275085,
2.2949999999999999,-0.12796780467033386,
2.2974999999999999,-0.11496186256408691,
2.2999999999999998,-0.10573029518127441,
2.3025000000000002,-0.094743773341178894,
2.3050000000000002,-0.090921327471733093,
2.3075000000000001,-0.087171003222465515,
2.3100000000000001,-0.083036027848720551,
2.3125,-0.073612138628959656,
2.3149999999999999,-0.068755947053432465,
2.3174999999999999,-0.064212284982204437,
2.3199999999999998,-0.060269635170698166,
2.3224999999999998,-0.054427783936262131,
2.3250000000000002,-0.052336256951093674,
2.3275000000000001,-0.050533216446638107,
2.3300000000000001,-0.048754215240478516,
2.3325,-0.044378839433193207,
2.335,-0.041590135544538498,
2.3374999999999999,-0.038464866578578949,
2.3399999999999999,-0.035075150430202484,
2.3424999999999998,-0.028391879051923752,
2.3450000000000002,-0.025386810302734375,
2.3475000000000001,-0.022790431976318359,
2.3500000000000001,-0.020578702911734581,
2.3525,-0.017116865143179893,
2.355,-0.015626352280378342,
2.3574999999999999,-0.014159878715872765,
2.3599999999999999,-0.012597243301570415,
2.3624999999999998,-0.0089671220630407333,
2.3650000000000002,-0.0069477162323892117,
2.3675000000000002,-0.0048561892472207546,
2.3700000000000001,-0.0027646622620522976,
2.3725000000000001,0.0011058648815378547,
2.375,0.0028848648071289062,
2.3774999999999999,0.0045917434617877007,
2.3799999999999999,0.0062986216507852077,
2.3824999999999998,0.010217229835689068,
2.3849999999999998,0.012621283531188965,
2.3875000000000002,0.015409986488521099,
2.3900000000000001,0.018607378005981445,
2.3925000000000001,0.022189419716596603,
2.395,0.030267041176557541,
2.3975,0.034546256065368652,
2.3999999999999999,0.038897596299648285,
2.4024999999999999,0.04735986515879631,
2.4049999999999998,0.051422715187072754,
2.4075000000000002,0.055365364998579025,
2.4100000000000001,0.059308014810085297,
2.4125000000000001,0.067505836486816406,
2.415,0.072073541581630707,
2.4175,0.077122054994106293,
2.4199999999999999,0.082795619964599609,
2.4224999999999999,0.096306405961513519,
2.4249999999999998,0.10414361953735352,
2.4275000000000002,0.11258184909820557,
2.4300000000000002,0.12145280838012695,
2.4325000000000001,0.1393149346113205,
2.4350000000000001,0.14775316417217255,
2.4375,0.15544614195823669,
2.4399999999999999,0.16217748820781708,
2.4424999999999999,0.17227451503276825,
2.4449999999999998,0.17564019560813904,
2.4474999999999998,0.17809233069419861,
2.4500000000000002,0.17984728515148163,
2.4525000000000001,0.18234750628471375,
2.4550000000000001,0.18357357382774353,
2.4575,0.18501600623130798,
2.46,0.1866748034954071,
2.4624999999999999,0.19023279845714569,
2.4649999999999999,0.19167523086071014,
2.4674999999999998,0.19246856868267059,
2.4700000000000002,0.19230028986930847,
2.4725000000000001,0.18802106380462646,
2.4750000000000001,0.18352548778057098,
2.4775,0.1774432361125946,
2.48,0.16982237994670868,
2.4824999999999999,0.15071015059947968,
2.4849999999999999,0.13969957828521729,
2.4874999999999998,0.12811204791069031,
2.4900000000000002,0.11616389453411102,
2.4925000000000002,0.09197910875082016,
2.4950000000000001,0.080006919801235199,
2.4975000000000001,0.068178974092006683,
2.5,0.056495271623134613,
2.5024999999999999,0.03351251408457756,
2.5049999999999999,0.022165378555655479,
2.5074999999999998,0.010962486267089844,
2.5099999999999998,-7.2121620178222656e-05,
2.5125000000000002,-0.021035473793745041,
2.5150000000000001,-0.030651688575744629,
2.5175000000000001,-0.039450526237487793,
2.52,-0.047287743538618088,
2.5225,-0.059548418968915939,
2.5249999999999999,-0.063995920121669769,
2.5274999999999999,-0.067409679293632507,
2.5299999999999998,-0.06998201459646225,
2.5325000000000002,-0.073419809341430664,
2.5350000000000001,-0.074717998504638672,
2.5375000000000001,-0.07601618766784668,
2.54,-0.077362462878227234,
2.5425,-0.080511771142482758,
2.5449999999999999,-0.082194611430168152,
2.5474999999999999,-0.083877444267272949,
2.5499999999999998,-0.085440084338188171,
2.5525000000000002,-0.087820097804069519,
2.5550000000000002,-0.088589392602443695,
2.5575000000000001,-0.08907020092010498,
2.5600000000000001,-0.089334651827812195,
2.5625,-0.089406773447990417,
2.5649999999999999,-0.089382730424404144,
2.5674999999999999,-0.089430809020996094,
2.5699999999999998,-0.089575052261352539,
2.5724999999999998,-0.09015202522277832,
2.5750000000000002,-0.090584754943847656,
2.5775000000000001,-0.091017484664916992,
2.5800000000000001,-0.091450214385986328,
2.5825,-0.09197910875082016,
2.585,-0.09193103015422821,
2.5874999999999999,-0.09164254367351532,
2.5899999999999999,-0.091065570712089539,
2.5924999999999998,-0.088974043726921082,
2.5950000000000002,-0.087555646896362305,
2.5975000000000001,-0.086017057299613953,
2.6000000000000001,-0.08445441722869873,
2.6025,-0.081882081925868988,
2.605,-0.081136822700500488,
2.6074999999999999,-0.080824300646781921,
2.6099999999999999,-0.080968543887138367,
2.6124999999999998,-0.082122489809989929,
2.6150000000000002,-0.08269946277141571,
2.6175000000000002,-0.082939863204956055,
2.6200000000000001,-0.082651376724243164,
2.6225000000000001,-0.07983863353729248,
2.625,-0.077410541474819183,
2.6274999999999999,-0.07454971969127655,
2.6299999999999999,-0.071592733263969421,
2.6324999999999998,-0.066856741905212402,
2.6349999999999998,-0.065678760409355164,
2.6375000000000002,-0.065462395548820496,
2.6400000000000001,-0.066135525703430176,
2.6425000000000001,-0.069044433534145355,
2.645,-0.070462822914123535,
2.6475,-0.071256160736083984,
2.6499999999999999,-0.071135960519313812,
2.6524999999999999,-0.067794322967529297,
2.6549999999999998,-0.064933501183986664,
2.6575000000000002,-0.061856310814619064,
2.6600000000000001,-0.059043567627668381,
2.6625000000000001,-0.056399106979370117,
2.665,-0.057240527123212814,
2.6675,-0.059644579887390137,
2.6699999999999999,-0.063370868563652039,
2.6724999999999999,-0.073107287287712097,
2.6749999999999998,-0.077963471412658691,
2.6775000000000002,-0.08200228214263916,
2.6800000000000002,-0.084839068353176117,
2.6825000000000001,-0.086065135896205902,
2.6850000000000001,-0.084526538848876953,
2.6875,-0.081978246569633484,
2.6899999999999999,-0.078780852258205414,
2.6924999999999999,-0.072217784821987152,
2.6949999999999998,-0.069597363471984863,
2.6974999999999998,-0.067674122750759125,
2.7000000000000002,-0.066472098231315613,
2.7025000000000001,-0.065895125269889832,
2.7050000000000001,-0.066087447106838226,
2.7075,-0.066303811967372894,
2.71,-0.066327854990959167,
2.7124999999999999,-0.065414309501647949,
2.7149999999999999,-0.064476728439331055,
2.7174999999999998,-0.063346825540065765,
2.7200000000000002,-0.062144797295331955,
2.7225000000000001,-0.060197513550519943,
2.7250000000000001,-0.05966862291097641,
2.7275,-0.059524379670619965,
2.73,-0.059692662209272385,
2.7324999999999999,-0.060726404190063477,
2.7349999999999999,-0.061279337853193283,
2.7374999999999998,-0.061639945954084396,
2.7400000000000002,-0.061688028275966644,
2.7425000000000002,-0.060461960732936859,
2.7450000000000001,-0.059091649949550629,
2.7475000000000001,-0.057264566421508789,
2.75,-0.055028796195983887,
2.7524999999999999,-0.049860082566738129,
2.7549999999999999,-0.047167539596557617,
2.7574999999999998,-0.044619243592023849,
2.7599999999999998,-0.042311351746320724,
2.7625000000000002,-0.038873553276062012,
2.7650000000000001,-0.037863850593566895,
2.7675000000000001,-0.037383042275905609,
2.77,-0.037383042275905609,
2.7725,-0.038609109818935394,
2.7749999999999999,-0.039666891098022461,
2.7774999999999999,-0.040868919342756271,
2.7799999999999998,-0.042094986885786057,
2.7825000000000002,-0.044138431549072266,
2.7850000000000001,-0.044763486832380295,
2.7875000000000001,-0.044979851692914963,
2.79,-0.04473944753408432,
2.7925,-0.042479634284973145,
2.7949999999999999,-0.040340028703212738,
2.7974999999999999,-0.037431120872497559,
2.7999999999999998,-0.033752918243408203,
2.8025000000000002,-0.024136703461408615,
2.8050000000000002,-0.018391013145446777,
2.8075000000000001,-0.012260675430297852,
2.8100000000000001,-0.0060582160949707031,
2.8125,0.0052167973481118679,
2.8149999999999999,0.0094960136339068413,
2.8174999999999999,0.012404918670654297,
2.8199999999999998,0.013630986213684082,
2.8224999999999998,0.010337432846426964,
2.8250000000000002,0.0058418512344360352,
2.8275000000000001,-0.00036060810089111328,
2.8300000000000001,-0.0079333782196044922,
2.8325,-0.025410851463675499,
2.835,-0.034329891204833984,
2.8374999999999999,-0.042768120765686035,
2.8399999999999999,-0.050292812287807465,
2.8424999999999998,-0.061519742012023926,
2.8450000000000002,-0.064981579780578613,
2.8475000000000001,-0.067049071192741394,
2.8500000000000001,-0.067938566207885742,
2.8525,-0.067241393029689789,
2.855,-0.066207647323608398,
2.8574999999999999,-0.065101787447929382,
2.8599999999999999,-0.064043998718261719,
2.8624999999999998,-0.062265001237392426,
2.8650000000000002,-0.061399541795253754,
2.8675000000000002,-0.060389839112758636,
2.8700000000000001,-0.059187810868024826,
2.8725000000000001,-0.057793460786342621,
2.875,-0.055413447320461273,
2.8774999999999999,-0.055389404296875,
2.8799999999999999,-0.057096283882856369,
2.8824999999999998,-0.068972311913967133,
2.8849999999999998,-0.08058389276266098,
2.8875000000000002,-0.096474692225456238,
2.8900000000000001,-0.11657258123159409,
2.8925000000000001,-0.16609609127044678,
2.895,-0.19242048263549805,
2.8975,-0.21674951910972595,
2.8999999999999999,-0.23622235655784607,
2.9024999999999999,-0.24802625179290771,
2.9049999999999998,-0.23403465747833252,
2.9075000000000002,-0.20316660404205322,
2.9100000000000001,-0.15347480773925781,
2.9125000000000001,0.00461578369140625,
2.915,0.11075477302074432,
2.9175,0.23088535666465759,
2.9199999999999999,0.35998305678367615,
2.9224999999999999,0.61839485168457031,
2.9249999999999998,0.73229891061782837,
2.9275000000000002,0.82552814483642578,
2.9300000000000002,0.89113473892211914,
2.9325000000000001,0.92022383213043213,
2.9350000000000001,0.88007611036300659,
2.9375,0.80562257766723633,
2.9399999999999999,0.70188760757446289,
2.9424999999999999,0.43712913990020752,
2.9449999999999998,0.29435238242149353,
2.9474999999999998,0.1569366455078125,
2.9500000000000002,0.032935541123151779,
2.9525000000000001,-0.15272955596446991,
2.9550000000000001,-0.20927290618419647,
2.9575,-0.24220845103263855,
2.96,-0.25449317693710327,
2.9624999999999999,-0.23465971648693085,
2.9649999999999999,-0.21227797865867615,
2.9674999999999998,-0.18742005527019501,
2.9700000000000002,-0.16342759132385254,
2.9725000000000001,-0.12546758353710175,
2.9750000000000001,-0.11262993514537811,
2.9775,-0.10335028171539307,
2.98,-0.096667014062404633,
2.9824999999999999,-0.087171003222465515,
2.9849999999999999,-0.082915827631950378,
2.9874999999999998,-0.078492365777492523,
2.9900000000000002,-0.073972746729850769,
2.9925000000000002,-0.065486431121826172,
2.9950000000000001,-0.062024593353271484,
2.9975000000000001,-0.059356093406677246,
3,-0.057408809661865234,92.943199157714844
3.0024999999999999,-0.055124960839748383,
3.0049999999999999,-0.054187379777431488,
3.0074999999999998,-0.053081512451171875,
3.0099999999999998,-0.051566958427429199,
3.0125000000000002,-0.047143500298261642,
3.0150000000000001,-0.044354796409606934,
3.0175000000000001,-0.041421853005886078,
3.02,-0.038512945175170898,
3.0225,-0.03351251408457756,
3.0249999999999999,-0.031613312661647797,
3.0274999999999999,-0.030074715614318848,
3.0299999999999998,-0.028800567612051964,
3.0325000000000002,-0.026564797386527061,
3.0350000000000001,-0.02524256706237793,
3.0375000000000001,-0.023607810959219933,
3.04,-0.021588405594229698,
3.0425,-0.016179284080862999,
3.0449999999999999,-0.012885729782283306,
3.0474999999999999,-0.0093036890029907227,
3.0499999999999998,-0.0055774054490029812,
3.0525000000000002,0.0018751621246337891,
3.0550000000000002,0.0053610405884683132,
3.0575000000000001,0.0086065139621496201,
3.0600000000000001,0.011515418998897076,
3.0625,0.016539892181754112,
3.0649999999999999,0.018703540787100792,
3.0674999999999999,0.020819108933210373,
3.0699999999999998,0.02291063591837883,
3.0724999999999998,0.027646621689200401,
3.0750000000000002,0.030435323715209961,
3.0775000000000001,0.033608675003051758,
3.0800000000000001,0.037214756011962891,
3.0825,0.045773189514875412,
3.085,0.050677459686994553,
3.0874999999999999,0.056014459580183029,
3.0899999999999999,0.061760149896144867,
3.0924999999999998,0.074333354830741882,
3.0950000000000002,0.081160865724086761,
3.0975000000000001,0.088276863098144531,
3.1000000000000001,0.095657311379909515,
3.1025,0.11073072999715805,
3.105,0.11823137849569321,
3.1074999999999999,0.12553970515727997,
3.1099999999999999,0.13253550231456757,
3.1124999999999998,0.14522890746593475,
3.1150000000000002,0.15085439383983612,
3.1175000000000002,0.15599906444549561,
3.1200000000000001,0.16073505580425262,
3.1225000000000001,0.16922137141227722,
3.125,0.17313997447490692,
3.1274999999999999,0.17686626315116882,
3.1299999999999999,0.18042425811290741,
3.1324999999999998,0.18698732554912567,
3.1349999999999998,0.18987219035625458,
3.1375000000000002,0.19234836101531982,
3.1400000000000001,0.19431969523429871,
3.1425000000000001,0.19633910059928894,
3.145,0.19614677131175995,
3.1475,0.19499282538890839,
3.1499999999999999,0.19273301959037781,
3.1524999999999999,0.18467943370342255,
3.1549999999999998,0.17874142527580261,
3.1575000000000002,0.17155329883098602,
3.1600000000000001,0.16316315531730652,
3.1625000000000001,0.14325758814811707,
3.165,0.13203065097332001,
3.1675,0.12020270526409149,
3.1699999999999999,0.10791798681020737,
3.1724999999999999,0.082459054887294769,
3.1749999999999998,0.069501206278800964,
3.1775000000000002,0.056519310921430588,
3.1800000000000002,0.04353741928935051,
3.1825000000000001,0.018198689445853233,
3.1850000000000001,0.0061062974855303764,
3.1875,-0.0053610405884683132,
3.1899999999999999,-0.015962919220328331,
3.1924999999999999,-0.034113526344299316,
3.1949999999999998,-0.041445892304182053,
3.1974999999999998,-0.047648351639509201,
3.2000000000000002,-0.052865147590637207,
3.2025000000000001,-0.060990851372480392,
3.2050000000000001,-0.064356528222560883,
3.2075,-0.067553922533988953,
3.21,-0.070679187774658203,
3.2124999999999999,-0.076857611536979675,
3.2149999999999999,-0.079790554940700531,
3.2174999999999998,-0.082483097910881042,
3.2200000000000002,-0.084790989756584167,
3.2225000000000001,-0.087964341044425964,
3.2250000000000001,-0.088805757462978363,
3.2275,-0.089214444160461426,
3.23,-0.089286565780639648,
3.2324999999999999,-0.088925957679748535,
3.2349999999999999,-0.088637471199035645,
3.2374999999999998,-0.088348984718322754,
3.2400000000000002,-0.088036462664604187,
3.2425000000000002,-0.087243124842643738,
3.2450000000000001,-0.086786352097988129,
3.2475000000000001,-0.08628150075674057,
3.25,-0.085872814059257507,
3.2524999999999999,-0.085560284554958344,
3.2549999999999999,-0.085776649415493011,
3.2574999999999998,-0.086233422160148621,
3.2599999999999998,-0.086834430694580078,
3.2625000000000002,-0.087820097804069519,
3.2650000000000001,-0.087796054780483246,
3.2675000000000001,-0.087291203439235687,
3.27,-0.086209379136562347,
3.2725,-0.082939863204956055,
3.2749999999999999,-0.081257030367851257,
3.2774999999999999,-0.07995884120464325,
3.2799999999999998,-0.079381868243217468,
3.2825000000000002,-0.080968543887138367,
3.2850000000000001,-0.083036027848720551,
3.2875000000000001,-0.085632406175136566,
3.29,-0.088276863098144531,
3.2925,-0.091906987130641937,
3.2949999999999999,-0.092123351991176605,
3.2974999999999999,-0.091017484664916992,
3.2999999999999998,-0.088661514222621918,
3.3025000000000002,-0.081593595445156097,
3.3050000000000002,-0.077843271195888519,
3.3075000000000001,-0.074645876884460449,
3.3100000000000001,-0.072386071085929871,
3.3125,-0.071544647216796875,
3.3149999999999999,-0.072842836380004883,
3.3174999999999999,-0.07493436336517334,
3.3199999999999998,-0.077434584498405457,
3.3224999999999998,-0.082050368189811707,
3.3250000000000002,-0.083613000810146332,
3.3275000000000001,-0.084478460252285004,
3.3300000000000001,-0.084694825112819672,
3.3325,-0.083829365670681,
3.335,-0.083156228065490723,
3.3374999999999999,-0.082507133483886719,
3.3399999999999999,-0.082050368189811707,
3.3424999999999998,-0.081617638468742371,
3.3450000000000002,-0.081545516848564148,
3.3475000000000001,-0.081425309181213379,
3.3500000000000001,-0.081232987344264984,
3.3525,-0.080439649522304535,
3.355,-0.079910755157470703,
3.3574999999999999,-0.079309746623039246,
3.3599999999999999,-0.078684687614440918,
3.3624999999999998,-0.077434584498405457,
3.3650000000000002,-0.076737403869628906,
3.3675000000000002,-0.075895987451076508,
3.3700000000000001,-0.074910327792167664,
3.3725000000000001,-0.072337985038757324,
3.375,-0.070871517062187195,
3.3774999999999999,-0.069405041635036469,
3.3799999999999999,-0.068106852471828461,
3.3824999999999998,-0.06639997661113739,
3.3849999999999998,-0.066231690347194672,
3.3875000000000002,-0.066520176827907562,
3.3900000000000001,-0.067193314433097839,
3.3925000000000001,-0.069284841418266296,
3.395,-0.070366665720939636,
3.3975,-0.071256160736083984,
3.3999999999999999,-0.071833133697509766,
3.4024999999999999,-0.072001419961452484,
3.4049999999999998,-0.071664854884147644,
3.4075000000000002,-0.071184039115905762,
3.4100000000000001,-0.070703230798244476,
3.4125000000000001,-0.070174336433410645,
3.415,-0.07027050107717514,
3.4175,-0.070655152201652527,
3.4199999999999999,-0.071208082139492035,
3.4224999999999999,-0.072578392922878265,
3.4249999999999998,-0.073131322860717773,
3.4275000000000002,-0.073491930961608887,
3.4300000000000002,-0.073636174201965332,
3.4325000000000001,-0.073251530528068542,
3.4350000000000001,-0.072842836380004883,
3.4375,-0.072410106658935547,
3.4399999999999999,-0.071977376937866211,
3.4424999999999999,-0.071328282356262207,
3.4449999999999998,-0.07101576030254364,
3.4474999999999998,-0.07060706615447998,
3.4500000000000002,-0.069957971572875977,
3.4525000000000001,-0.067529879510402679,
3.4550000000000001,-0.065630674362182617,
3.4575,-0.063274703919887543,
3.46,-0.060606203973293304,
3.4624999999999999,-0.055004756897687912,
3.4649999999999999,-0.052528582513332367,
3.4674999999999998,-0.050557255744934082,
3.4700000000000002,-0.049307148903608322,
3.4725000000000001,-0.049186944961547852,
3.4750000000000001,-0.050292812287807465,
3.4775,-0.051999688148498535,
3.48,-0.054091215133666992,
3.4824999999999999,-0.058346390724182129,
3.4849999999999999,-0.059981148689985275,
3.4874999999999998,-0.060942769050598145,
3.4900000000000002,-0.061062972992658615,
3.4925000000000002,-0.058226190507411957,
3.4950000000000001,-0.055149000138044357,
3.4975000000000001,-0.050941906869411469,
3.5,-0.045725107192993164,
3.5024999999999999,-0.032983623445034027,
3.5049999999999999,-0.026035904884338379,
3.5074999999999998,-0.019136270508170128,
3.5099999999999998,-0.01276552677154541,
3.5125000000000002,-0.0031733512878417969,
3.5150000000000001,-0.00069717568112537265,
3.5175000000000001,-4.8081081331474707e-05,
3.52,-0.0013462703209370375,
3.5225,-0.0093036890029907227,
3.5249999999999999,-0.015434026718139648,
3.5274999999999999,-0.02245386503636837,
3.5299999999999998,-0.029954513534903526,
3.5325000000000002,-0.044667325913906097,
3.5350000000000001,-0.051254432648420334,
3.5375000000000001,-0.057048201560974121,
3.54,-0.062048636376857758,
3.5425,-0.069693528115749359,
3.5449999999999999,-0.072602435946464539,
3.5474999999999999,-0.075054571032524109,
3.5499999999999998,-0.077146098017692566,
3.5525000000000002,-0.08029540628194809,
3.5550000000000002,-0.081257030367851257,
3.5575000000000001,-0.081617638468742371,
3.5600000000000001,-0.081232987344264984,
3.5625,-0.077819228172302246,
3.5649999999999999,-0.074862241744995117,
3.5674999999999999,-0.071328282356262207,
3.5699999999999998,-0.067650079727172852,
3.5724999999999998,-0.062481366097927094,
3.5750000000000002,-0.062625609338283539,
3.5775000000000001,-0.065750882029533386,
3.5800000000000001,-0.072626471519470215,
3.5825,-0.099527835845947266,
3.585,-0.11962573230266571,
3.5874999999999999,-0.14337778091430664,
3.5899999999999999,-0.16960601508617401,
3.5924999999999998,-0.22213459014892578,
3.5950000000000002,-0.24362683296203613,
3.5975000000000001,-0.25817137956619263,
3.6000000000000001,-0.26278716325759888,
3.6025,-0.23066899180412292,
3.605,-0.18915097415447235,
3.6074999999999999,-0.12861689925193787,
3.6099999999999999,-0.048754215240478516,
3.6124999999999998,0.16311506927013397,
3.6150000000000002,0.28846246004104614,
3.6175000000000002,0.41969975829124451,
3.6200000000000001,0.54992735385894775,
3.6225000000000001,0.77593249082565308,
3.625,0.85603559017181396,
3.6274999999999999,0.90529465675354004,
3.6299999999999999,0.91923815011978149,
3.6324999999999998,0.83622616529464722,
3.6349999999999998,0.7439345121383667,
3.6375000000000002,0.62539064884185791,
3.6400000000000001,0.48893651366233826,
3.6425000000000001,0.20071446895599365,
3.645,0.067674122750759125,
3.6475,-0.047672390937805176,
3.6499999999999999,-0.14015635848045349,
3.6524999999999999,-0.24910807609558105,
3.6549999999999998,-0.26790779829025269,
3.6575000000000002,-0.26769143342971802,
3.6600000000000001,-0.25350749492645264,
3.6625000000000001,-0.20422439277172089,
3.665,-0.17811636626720428,
3.6675,-0.15530189871788025,
3.6699999999999999,-0.13736765086650848,
3.6724999999999999,-0.11690914630889893,
3.6749999999999998,-0.11272609233856201,
3.6775000000000002,-0.11085093021392822,
3.6800000000000002,-0.10986527055501938,
3.6825000000000001,-0.10649959743022919,
3.6850000000000001,-0.1030377596616745,
3.6875,-0.098253689706325531,
3.6899999999999999,-0.092459917068481445,
3.6924999999999999,-0.07955014705657959,
3.6949999999999998,-0.073347687721252441,
3.6974999999999998,-0.067770287394523621,
3.7000000000000002,-0.063034296035766602,
3.7025000000000001,-0.05647122859954834,
3.7050000000000001,-0.054596066474914551,
3.7075,-0.053514242172241211,
3.71,-0.053129594773054123,
3.7124999999999999,-0.053658485412597656,
3.7149999999999999,-0.054187379777431488,
3.7174999999999998,-0.054596066474914551,
3.7200000000000002,-0.054740309715270996,
3.7225000000000001,-0.053418081253767014,
3.7250000000000001,-0.051759283989667892,
3.7275,-0.04940330982208252,
3.73,-0.046470366418361664,
3.7324999999999999,-0.039330326020717621,
3.7349999999999999,-0.035483837127685547,
3.7374999999999998,-0.031733512878417969,
3.7400000000000002,-0.02815147303044796,
3.7425000000000002,-0.021900933235883713,
3.7450000000000001,-0.019184350967407227,
3.7475000000000001,-0.016636054962873459,
3.75,-0.014183918945491314,
3.7524999999999999,-0.009135405533015728,
3.7549999999999999,-0.0064188241958618164,
3.7574999999999998,-0.0035820405464619398,
3.7599999999999998,-0.00069717568112537265,
3.7625000000000002,0.0050965948030352592,
3.7650000000000001,0.0078612565994262695,
3.7675000000000001,0.010481676086783409,
3.77,0.013029973022639751,
3.7725,0.018198689445853233,
3.7749999999999999,0.02108355425298214,
3.7774999999999999,0.024353068321943283,
3.7799999999999998,0.028103392571210861,
3.7825000000000002,0.037407081574201584,
3.7850000000000001,0.042936407029628754,
3.7875000000000001,0.048946540802717209,
3.79,0.055341325700283051,
3.7925,0.068707868456840515,
3.7949999999999999,0.075439214706420898,
3.7974999999999999,0.082098446786403656,
3.7999999999999998,0.088661514222621918,
3.8025000000000002,0.10147511959075928,
3.8050000000000002,0.10777374356985092,
3.8075000000000001,0.11400024592876434,
3.8100000000000001,0.12015461921691895,
3.8125,0.13215085864067078,
3.8149999999999999,0.13787250220775604,
3.8174999999999999,0.14337778091430664,
3.8199999999999998,0.14861862361431122,
3.8224999999999998,0.15823483467102051,
3.8250000000000002,0.16265830397605896,
3.8275000000000001,0.166817307472229,
3.8300000000000001,0.17071187496185303,
3.8325,0.17746727168560028,
3.835,0.18011173605918884,
3.8374999999999999,0.18205901980400085,
3.8399999999999999,0.18311679363250732,
3.8424999999999998,0.18193881213665009,
3.8450000000000002,0.17943859100341797,
3.8475000000000001,0.17556807398796082,
3.8500000000000001,0.17037531733512878,
3.8525,0.1562875509262085,
3.855,0.14763295650482178,
3.8574999999999999,0.13808886706829071,
3.8599999999999999,0.12779951095581055,
3.8624999999999998,0.10532160848379135,
3.8650000000000002,0.093253254890441895,
3.8675000000000002,0.080728136003017426,
3.8700000000000001,0.067770287394523621,
3.8725000000000001,0.040989123284816742,
3.875,0.027478337287902832,
3.8774999999999999,0.014135837554931641,
3.8799999999999999,0.0012741487007588148,
3.8824999999999998,-0.022141337394714355,
3.8849999999999998,-0.032238364219665527,
3.8875000000000002,-0.041085284203290939,
3.8900000000000001,-0.048658054322004318,
3.8925000000000001,-0.060365796089172363,
3.895,-0.064909458160400391,
3.8975,-0.06890019029378891,
3.8999999999999999,-0.072650514543056488,
3.9024999999999999,-0.080199241638183594,
3.9049999999999998,-0.084238052368164062,
3.9075000000000002,-0.088469192385673523,
3.9100000000000001,-0.092796489596366882,
3.9125000000000001,-0.10109047591686249,
3.915,-0.10464847087860107,
3.9175,-0.1076054573059082,
3.9199999999999999,-0.10979314893484116,
3.9224999999999999,-0.11188467592000961,
3.9249999999999998,-0.11190871894359589,
3.9275000000000002,-0.111427903175354,
3.9300000000000002,-0.11065860837697983,
3.9325000000000001,-0.10899981111288071,
3.9350000000000001,-0.10849495977163315,
3.9375,-0.1083507165312767,
3.9399999999999999,-0.10859112441539764,
3.9424999999999999,-0.1100335568189621,
3.9449999999999998,-0.11099517345428467,
3.9474999999999998,-0.11186063289642334,
3.9500000000000002,-0.11248569190502167,
3.9525000000000001,-0.11231740564107895,
3.9550000000000001,-0.11137982457876205,
3.9575,-0.10988931357860565,
3.96,-0.10801415145397186,
3.9624999999999999,-0.10390321910381317,
3.9649999999999999,-0.10222037881612778,
3.9674999999999998,-0.10109047591686249,
3.9700000000000002,-0.10075390338897705,
3.9725000000000001,-0.10255694389343262,
3.9750000000000001,-0.10455231368541718,
3.9775,-0.10702848434448242,
3.98,-0.10964890569448471,
3.9824999999999999,-0.11421661078929901,
3.9849999999999999,-0.11565904319286346,
3.9874999999999998,-0.11638025939464569,
3.9900000000000002,-0.11635621637105942,
3.9925000000000002,-0.11455317586660385,
3.9950000000000001,-0.11313478648662567,
3.9975000000000001,-0.111620232462883,
4,-0.11020183563232422,91.254753112792969
4.0025000000000004,-0.10799010843038559,
4.0049999999999999,-0.10719677060842514,
4.0075000000000003,-0.10652363300323486,
4.0099999999999998,-0.10589858144521713,
4.0125000000000002,-0.10450422763824463,
4.0149999999999997,-0.10366281121969223,
4.0175000000000001,-0.10274927318096161,
4.0199999999999996,-0.10176360607147217,
4.0225,-0.099936529994010925,
4.0250000000000004,-0.099167227745056152,
4.0274999999999999,-0.098542176187038422,
4.0300000000000002,-0.097989246249198914,
4.0324999999999998,-0.097123786807060242,
4.0350000000000001,-0.096715092658996582,
4.0374999999999996,-0.096306405961513519,
4.04,-0.095897719264030457,
4.0425000000000004,-0.095200538635253906,
4.0449999999999999,-0.094960138201713562,
4.0475000000000003,-0.094839930534362793,
4.0499999999999998,-0.094863973557949066,
4.0525000000000002,-0.095104381442070007,
4.0549999999999997,-0.095200538635253906,
4.0575000000000001,-0.09517650306224823,
4.0599999999999996,-0.094960138201713562,
4.0625,-0.093661949038505554,
4.0650000000000004,-0.092604160308837891,
4.0674999999999999,-0.091281935572624207,
4.0700000000000003,-0.08981546014547348,
4.0724999999999998,-0.086906552314758301,
4.0750000000000002,-0.085680484771728516,
4.0774999999999997,-0.084790989756584167,
4.0800000000000001,-0.084262095391750336,
4.0824999999999996,-0.084358260035514832,
4.085,-0.08491118997335434,
4.0875000000000004,-0.085656449198722839,
4.0899999999999999,-0.086425743997097015,
4.0925000000000002,-0.087531611323356628,
4.0949999999999998,-0.087627768516540527,
4.0975000000000001,-0.087291203439235687,
4.0999999999999996,-0.086545944213867188,
4.1025,-0.084189973771572113,
4.1050000000000004,-0.082891784608364105,
4.1074999999999999,-0.081761881709098816,
4.1100000000000003,-0.080968543887138367,
4.1124999999999998,-0.081016622483730316,
4.1150000000000002,-0.081906124949455261,
4.1174999999999997,-0.083324514329433441,
4.1200000000000001,-0.085103511810302734,
4.1224999999999996,-0.088853836059570312,
4.125,-0.090368390083312988,
4.1275000000000004,-0.091330014169216156,
4.1299999999999999,-0.091618500649929047,
4.1325000000000003,-0.089983746409416199,
4.1349999999999998,-0.088156662881374359,
4.1375000000000002,-0.085800692439079285,
4.1399999999999997,-0.0830841064453125,
4.1425000000000001,-0.077410541474819183,
4.1449999999999996,-0.074790120124816895,
4.1475,-0.072554349899291992,
4.1500000000000004,-0.070823431015014648,
4.1524999999999999,-0.068948268890380859,
4.1550000000000002,-0.068779990077018738,
4.1574999999999998,-0.068996354937553406,
4.1600000000000001,-0.069453120231628418,
4.1624999999999996,-0.070462822914123535,
4.165,-0.070679187774658203,
4.1675000000000004,-0.070510908961296082,
4.1699999999999999,-0.069885849952697754,
4.1725000000000003,-0.067337557673454285,
4.1749999999999998,-0.065510474145412445,
4.1775000000000002,-0.063442990183830261,
4.1799999999999997,-0.061183176934719086,
4.1825000000000001,-0.056278906762599945,
4.1849999999999996,-0.053658485412597656,
4.1875,-0.050869785249233246,
4.1900000000000004,-0.047864716500043869,
4.1924999999999999,-0.041349731385707855,
4.1950000000000003,-0.03800809383392334,
4.1974999999999998,-0.034858785569667816,
4.2000000000000002,-0.03214220330119133,
4.2024999999999997,-0.029305418953299522,
4.2050000000000001,-0.029714107513427734,
4.2074999999999996,-0.031565230339765549,
4.21,-0.034930907189846039,
4.2125000000000004,-0.045628946274518967,
4.2149999999999999,-0.052384339272975922,
4.2175000000000002,-0.059524379670619965,
4.2199999999999998,-0.066568255424499512,
4.2225000000000001,-0.078660652041435242,
4.2249999999999996,-0.083036027848720551,
4.2275,-0.086137257516384125,
4.2300000000000004,-0.087988376617431641,
4.2324999999999999,-0.088805757462978363,
4.2350000000000003,-0.088469192385673523,
4.2374999999999998,-0.088132619857788086,
4.2400000000000002,-0.08810858428478241,
4.2424999999999997,-0.08947889506816864,
4.2450000000000001,-0.090777084231376648,
4.2474999999999996,-0.092219516634941101,
4.25,-0.093421541154384613,
4.2525000000000004,-0.094166800379753113,
4.2549999999999999,-0.093541741371154785,
4.2575000000000003,-0.092532038688659668,
4.2599999999999998,-0.091738700866699219,
4.2625000000000002,-0.094214878976345062,
4.2649999999999997,-0.099479757249355316,
4.2675000000000001,-0.10868728160858154,
4.2699999999999996,-0.12231826782226562,
4.2725,-0.16265830397605896,
4.2750000000000004,-0.18758833408355713,
4.2774999999999999,-0.21331171691417694,
4.2800000000000002,-0.23728013038635254,
4.2824999999999998,-0.26721060276031494,
4.2850000000000001,-0.26632112264633179,
4.2874999999999996,-0.25047838687896729,
4.29,-0.2169899195432663,
4.2925000000000004,-0.091185770928859711,
4.2949999999999999,0.00091354054166004062,
4.2975000000000003,0.10976910591125488,
4.2999999999999998,0.23131808638572693,
4.3025000000000002,0.48867207765579224,
4.3049999999999997,0.60986042022705078,
4.3075000000000001,0.71547055244445801,
4.3099999999999996,0.79800170660018921,
4.3125,0.87036371231079102,
4.3150000000000004,0.85363149642944336,
4.3174999999999999,0.80151164531707764,
4.3200000000000003,0.7174418568611145,
4.3224999999999998,0.47867119312286377,
4.3250000000000002,0.3407265841960907,
4.3274999999999997,0.20266175270080566,
4.3300000000000001,0.072987079620361328,
4.3324999999999996,-0.13450682163238525,
4.335,-0.20453691482543945,
4.3375000000000004,-0.25079092383384705,
4.3399999999999999,-0.27509590983390808,
4.3425000000000002,-0.27237933874130249,
4.3449999999999998,-0.25451719760894775,
4.3475000000000001,-0.23175081610679626,
4.3499999999999996,-0.20783047378063202,
4.3525,-0.16657690703868866,
4.3550000000000004,-0.15155157446861267,
4.3574999999999999,-0.14034867286682129,
4.3600000000000003,-0.1323191374540329,
4.3624999999999998,-0.12202978134155273,
4.3650000000000002,-0.11815925687551498,
4.3674999999999997,-0.11440893262624741,
4.3700000000000001,-0.11061052978038788,
4.3724999999999996,-0.10289351642131805,
4.375,-0.099287435412406921,
4.3775000000000004,-0.096041962504386902,
4.3799999999999999,-0.093157097697257996,
4.3825000000000003,-0.088324949145317078,
4.3849999999999998,-0.086089178919792175,
4.3875000000000002,-0.083829365670681,
4.3899999999999997,-0.081377230584621429,
4.3925000000000001,-0.075920030474662781,
4.3949999999999996,-0.073011122643947601,
4.3975,-0.070054136216640472,
4.4000000000000004,-0.067193314433097839,
4.4024999999999999,-0.061952471733093262,
4.4050000000000002,-0.059644579887390137,
4.4074999999999998,-0.057529013603925705,
4.4100000000000001,-0.055581729859113693,
4.4124999999999996,-0.052071809768676758,
4.415,-0.05043705552816391,
4.4175000000000004,-0.048850379884243011,
4.4199999999999999,-0.047287743538618088,
4.4225000000000003,-0.044090352952480316,
4.4249999999999998,-0.042383473366498947,
4.4275000000000002,-0.040532350540161133,
4.4299999999999997,-0.038464866578578949,
4.4325000000000001,-0.033608675003051758,
4.4349999999999996,-0.030819972977042198,
4.4375,-0.027790864929556847,
4.4400000000000004,-0.024641554802656174,
4.4424999999999999,-0.018174648284912109,
4.4450000000000003,-0.015025338158011436,
4.4474999999999998,-0.012020270340144634,
4.4500000000000002,-0.0091834869235754013,
4.4524999999999997,-0.0040147705003619194,
4.4550000000000001,-0.0015866756439208984,
4.4574999999999996,0.00079333782196044922,
4.46,0.0032454729080200195,
4.4625000000000004,0.0087747974321246147,
4.4649999999999999,0.012020270340144634,
4.4675000000000002,0.015722513198852539,
4.4699999999999998,0.019953649491071701,
4.4725000000000001,0.03014683723449707,
4.4749999999999996,0.036156974732875824,
4.4775,0.042768120765686035,
4.4800000000000004,0.049884121865034103,
4.4824999999999999,0.065366230905056,
4.4850000000000003,0.07351597398519516,
4.4874999999999998,0.081761881709098816,
4.4900000000000002,0.089983746409416199,
4.4924999999999997,0.10587453842163086,
4.4950000000000001,0.11337518692016602,
4.4974999999999996,0.12049119174480438,
4.5,0.12717446684837341,
4.5025000000000004,0.13907453417778015,
4.5049999999999999,0.14419516921043396,
4.5075000000000003,0.14871478080749512,
4.5099999999999998,0.15256127715110779,
4.5125000000000002,0.15811464190483093,
4.5149999999999997,0.15974938869476318,
4.5175000000000001,0.16063889861106873,
4.5199999999999996,0.16080717742443085,
4.5225,0.15922050178050995,
4.5250000000000004,0.15763382613658905,
4.5274999999999999,0.15554229915142059,
4.5300000000000002,0.15296995639801025,
4.5324999999999998,0.14609436690807343,
4.5350000000000001,0.1415507048368454,
4.5374999999999996,0.13606946170330048,
4.54,0.12948235869407654,
4.5425000000000004,0.11253377050161362,
4.5449999999999999,0.10217230021953583,
4.5475000000000003,0.090632840991020203,
4.5499999999999998,0.078155800700187683,
4.5525000000000002,0.051374636590480804,
4.5549999999999997,0.0376715287566185,
4.5575000000000001,0.024136703461408615,
4.5599999999999996,0.010962486267089844,
4.5625,-0.013823310844600201,
4.5650000000000004,-0.025338729843497276,
4.5674999999999999,-0.036349296569824219,
4.5700000000000003,-0.046879053115844727,
4.5724999999999998,-0.066496133804321289,
4.5750000000000002,-0.075535379350185394,
4.5774999999999997,-0.083925530314445496,
4.5800000000000001,-0.091522336006164551,
4.5824999999999996,-0.1037830114364624,
4.585,-0.10825455188751221,
4.5875000000000004,-0.11166831105947495,
4.5899999999999999,-0.11409640312194824,
4.5925000000000002,-0.1169331893324852,
4.5949999999999998,-0.11787077039480209,
4.5975000000000001,-0.11885643005371094,
4.5999999999999996,-0.12005846202373505,
4.6025,-0.12342413514852524,
4.6050000000000004,-0.12546758353710175,
4.6074999999999999,-0.12751102447509766,
4.6100000000000003,-0.12933811545372009,
4.6124999999999998,-0.13142964243888855,
4.6150000000000002,-0.13142964243888855,
4.6174999999999997,-0.130732461810112,
4.6200000000000001,-0.12948235869407654,
4.6224999999999996,-0.12623688578605652,
4.625,-0.12486656755208969,
4.6275000000000004,-0.12400110810995102,
4.6299999999999999,-0.1238328218460083,
4.6325000000000003,-0.12582819163799286,
4.6349999999999998,-0.12777547538280487,
4.6375000000000002,-0.130083367228508,
4.6399999999999997,-0.13246338069438934,
4.6425000000000001,-0.13630986213684082,
4.6449999999999996,-0.13736765086650848,
4.6475,-0.13775229454040527,
4.6500000000000004,-0.13743977248668671,
4.6524999999999999,-0.13532420992851257,
4.6550000000000002,-0.13392984867095947,
4.6574999999999998,-0.13255953788757324,
4.6600000000000001,-0.131381556391716,
4.6624999999999996,-0.13003528118133545,
4.665,-0.12991508841514587,
4.6675000000000004,-0.13010740280151367,
4.6699999999999999,-0.13051609694957733,
4.6725000000000003,-0.13162195682525635,
4.6749999999999998,-0.13210277259349823,
4.6775000000000002,-0.1324152946472168,
4.6799999999999997,-0.13253550231456757,
4.6825000000000001,-0.13191044330596924,
4.6849999999999996,-0.13114115595817566,
4.6875,-0.13005933165550232,
4.6900000000000004,-0.12868902087211609,
4.6924999999999999,-0.12534737586975098,
4.6950000000000003,-0.12356837838888168,
4.6974999999999998,-0.12186150252819061,
4.7000000000000002,-0.12037098407745361,
4.7024999999999997,-0.11847178637981415,
4.7050000000000001,-0.11815925687551498,
4.7074999999999996,-0.11827945709228516,
4.71,-0.11876027286052704,
4.7125000000000004,-0.12037098407745361,
4.7149999999999999,-0.12116432189941406,
4.7175000000000002,-0.12181341648101807,
4.7199999999999998,-0.12212594598531723,
4.7225000000000001,-0.12147685140371323,
4.7249999999999996,-0.12044310569763184,
4.7275,-0.11900067329406738,
4.7300000000000004,-0.11719763278961182,
4.7324999999999999,-0.11289437860250473,
4.7350000000000003,-0.11063456535339355,
4.7374999999999998,-0.10849495977163315,
4.7400000000000002,-0.10659575462341309,
4.7424999999999997,-0.10380705446004868,
4.7450000000000001,-0.1030377596616745,
4.7474999999999996,-0.10265310853719711,
4.75,-0.10262906551361084,
4.7525000000000004,-0.10330220311880112,
4.7549999999999999,-0.10380705446004868,
4.7575000000000003,-0.10426382720470428,
4.7599999999999998,-0.10464847087860107,
4.7625000000000002,-0.10496100038290024,
4.7649999999999997,-0.10491292178630829,
4.7675000000000001,-0.10481675714254379,
4.7699999999999996,-0.10464847087860107,
4.7725,-0.10433594882488251,
4.7750000000000004,-0.10411958396434784,
4.7774999999999999,-0.10383109748363495,
4.7800000000000002,-0.10337432473897934,
4.7824999999999998,-0.10176360607147217,
4.7850000000000001,-0.10056158155202866,
4.7874999999999996,-0.099167227745056152,
4.79,-0.09767671674489975,
4.7925000000000004,-0.095104381442070007,
4.7949999999999999,-0.094359122216701508,
4.7975000000000003,-0.094214878976345062,
4.7999999999999998,-0.094743773341178894,
4.8025000000000002,-0.097748838365077972,
4.8049999999999997,-0.10000865161418915,
4.8075000000000001,-0.10250886529684067,
4.8099999999999996,-0.10498504340648651,
4.8125,-0.10892768949270248,
4.8150000000000004,-0.1100335568189621,
4.8174999999999999,-0.11044224351644516,
4.8200000000000003,-0.11015375703573227,
4.8224999999999998,-0.10782182216644287,
4.8250000000000002,-0.10609090328216553,
4.8274999999999997,-0.10423978418111801,
4.8300000000000001,-0.1023886650800705,
4.8324999999999996,-0.099215313792228699,
4.835,-0.09801328182220459,
4.8375000000000004,-0.097099743783473969,
4.8399999999999999,-0.096426606178283691,
4.8425000000000002,-0.095705389976501465,
4.8449999999999998,-0.095537111163139343,
4.8475000000000001,-0.095440946519374847,
4.8499999999999996,-0.095368824899196625,
4.8525,-0.095248624682426453,
4.8550000000000004,-0.095104381442070007,
4.8574999999999999,-0.094839930534362793,
4.8600000000000003,-0.09443124383687973,
4.8624999999999998,-0.09301285445690155,
4.8650000000000002,-0.092027187347412109,
4.8674999999999997,-0.090849205851554871,
4.8700000000000001,-0.089599095284938812,
4.8724999999999996,-0.087171003222465515,
4.875,-0.086209379136562347,
4.8775000000000004,-0.085488162934780121,
4.8799999999999999,-0.085103511810302734,
4.8825000000000003,-0.08524775505065918,
4.8849999999999998,-0.085704527795314789,
4.8875000000000002,-0.086305543780326843,
4.8899999999999997,-0.086954638361930847,
4.8925000000000001,-0.088060498237609863,
4.8949999999999996,-0.088373027741909027,
4.8975,-0.088469192385673523,
4.9000000000000004,-0.088252827525138855,
4.9024999999999999,-0.086714230477809906,
4.9050000000000002,-0.08519967645406723,
4.9074999999999998,-0.083011984825134277,
4.9100000000000001,-0.080054998397827148,
4.9124999999999996,-0.071472525596618652,
4.915,-0.065847039222717285,
4.9175000000000004,-0.059500336647033691,
4.9199999999999999,-0.052672825753688812,
4.9225000000000003,-0.039162039756774902,
4.9249999999999998,-0.033416353166103363,
4.9275000000000002,-0.029016932472586632,
4.9299999999999997,-0.02632439136505127,
4.9325000000000001,-0.02706964872777462,
4.9349999999999996,-0.030555527657270432,
4.9375,-0.035868488252162933,
4.9400000000000004,-0.04262387752532959,
4.9424999999999999,-0.058490633964538574,
4.9450000000000003,-0.066592298448085785,
4.9474999999999998,-0.07426123321056366,
4.9500000000000002,-0.081184908747673035,
4.9524999999999997,-0.092267595231533051,
4.9550000000000001,-0.096474692225456238,
4.9574999999999996,-0.099984608590602875,
4.96,-0.10294159501791,
4.9625000000000004,-0.10772566497325897,
4.9649999999999999,-0.10962486267089844,
4.9675000000000002,-0.11116345971822739,
4.9699999999999998,-0.11243760585784912,
4.9725000000000001,-0.11181255429983139,
4.9749999999999996,-0.110129714012146,
4.9775,-0.10736505687236786,
4.9800000000000004,-0.10363876819610596,
4.9824999999999999,-0.094912052154541016,
4.9850000000000003,-0.091161727905273438,
4.9874999999999998,-0.088950000703334808,
4.9900000000000002,-0.089214444160461426,
4.9924999999999997,-0.1008019894361496,
4.9950000000000001,-0.11337518692016602,
4.9974999999999996,-0.130732461810112,
5,-0.17749130725860596,90.395477294921875
5.0025000000000004,-0.20441672205924988,
5.0049999999999999,-0.23107767105102539,
5.0075000000000003,-0.25490185618400574,
5.0099999999999998,-0.27302843332290649,
5.0125000000000002,-0.27963957190513611,
5.0149999999999997,-0.26216208934783936,
5.0175000000000001,-0.2275196760892868,
5.0199999999999996,-0.17405351996421814,
5.0225,-0.0093998517841100693,
5.0250000000000004,0.099071070551872253,
5.0274999999999999,0.22064408659934998,
5.0300000000000002,0.48100313544273376,
5.0324999999999998,0.60574948787689209,
5.0350000000000001,0.7164081335067749,
5.0374999999999996,0.80518984794616699,
5.04,0.86526715755462646,
5.0425000000000004,0.88103771209716797,
5.0449999999999999,0.83377403020858765,
5.0475000000000003,0.75244486331939697,
5.0499999999999998,0.64248347282409668,
5.0525000000000002,0.36895018815994263,
5.0549999999999997,0.22420208156108856,
5.0575000000000001,0.086666151881217957,
5.0599999999999996,-0.13683876395225525,
5.0625,-0.21340787410736084,
5.0650000000000004,-0.26442191004753113,
5.0674999999999999,-0.29137134552001953,
5.0700000000000003,-0.28793355822563171,
5.0724999999999998,-0.26742696762084961,
5.0750000000000002,-0.24122278392314911,
5.0774999999999997,-0.2137204110622406,
5.0800000000000001,-0.16688942909240723,
5.0824999999999996,-0.15056590735912323,
5.085,-0.13919472694396973,
5.0875000000000004,-0.13193449378013611,
5.0899999999999999,-0.12503485381603241,
5.0925000000000002,-0.1230875700712204,
5.0949999999999998,-0.12099604308605194,
5.0975000000000001,-0.11835157871246338,
5.0999999999999996,-0.11125962436199188,
5.1025,-0.10722081363201141,
5.1050000000000004,-0.10320603847503662,
5.1074999999999999,-0.099407635629177094,
5.1100000000000003,-0.092820525169372559,
5.1124999999999998,-0.089935660362243652,
5.1150000000000002,-0.087171003222465515,
5.1174999999999997,-0.084430381655693054,
5.1200000000000001,-0.078732773661613464,
5.1224999999999996,-0.075823865830898285,
5.125,-0.072987079620361328,
5.1275000000000004,-0.070342622697353363,
5.1299999999999999,-0.065919160842895508,
5.1325000000000003,-0.06423632800579071,
5.1349999999999998,-0.062817931175231934,
5.1375000000000002,-0.061615906655788422,
5.1399999999999997,-0.059235893189907074,
5.1425000000000001,-0.057817500084638596,
5.1449999999999996,-0.0561346635222435,
5.1475,-0.05413929745554924,
5.1500000000000004,-0.05185544490814209,
5.1524999999999999,-0.046638648957014084,
5.1550000000000002,-0.043922066688537598,
5.1574999999999998,-0.041229527443647385,
5.1600000000000001,-0.036229096353054047,
5.1624999999999996,-0.033921204507350922,
5.165,-0.031757555902004242,
5.1675000000000004,-0.029666027054190636,
5.1699999999999999,-0.025338729843497276,
5.1725000000000003,-0.022982757538557053,
5.1749999999999998,-0.020386379212141037,
5.1775000000000002,-0.017549594864249229,
5.1799999999999997,-0.010914405807852745,
5.1825000000000001,-0.007140040397644043,
5.1849999999999996,-0.0030531487427651882,
5.1875,0.0012981891632080078,
5.1900000000000004,0.0059380135498940945,
5.1924999999999999,0.015794634819030762,
5.1950000000000003,0.020987391471862793,
5.1974999999999998,0.026300352066755295,
5.2000000000000002,0.037262838333845139,
5.2024999999999997,0.042888324707746506,
5.2050000000000001,0.048658054322004318,
5.2074999999999996,0.054572027176618576,
5.21,0.067000985145568848,
5.2125000000000004,0.073540017008781433,
5.2149999999999999,0.08029540628194809,
5.2175000000000002,0.087219081819057465,
5.2199999999999998,0.10133087635040283,
5.2225000000000001,0.10837475955486298,
5.2249999999999996,0.11529843509197235,
5.2275,0.12205382436513901,
5.2300000000000004,0.13481935858726501,
5.2324999999999999,0.14073333144187927,
5.2350000000000003,0.14633476734161377,
5.2374999999999998,0.15155157446861267,
5.2400000000000002,0.16068696975708008,
5.2424999999999997,0.16446134448051453,
5.2450000000000001,0.16761064529418945,
5.2474999999999996,0.17008683085441589,
5.25,0.17275533080101013,
5.2525000000000004,0.17292360961437225,
5.2549999999999999,0.17225047945976257,
5.2575000000000003,0.17078399658203125,
5.2599999999999998,0.16535083949565887,
5.2625000000000002,0.16131202876567841,
5.2649999999999997,0.15623947978019714,
5.2675000000000001,0.15008509159088135,
5.2699999999999996,0.13407409191131592,
5.2725,0.12409727275371552,
5.2750000000000004,0.11282225698232651,
5.2774999999999999,0.10039329528808594,
5.2800000000000002,0.072939001023769379,
5.2824999999999998,0.058562755584716797,
5.2850000000000001,0.044210553169250488,
5.2874999999999996,0.030267041176557541,
5.29,0.0045436620712280273,
5.2925000000000004,-0.006875594612210989,
5.2949999999999999,-0.017357271164655685,
5.2975000000000003,-0.026925405487418175,
5.2999999999999998,-0.044042270630598068,
5.3025000000000002,-0.051927566528320312,
5.3049999999999997,-0.059548418968915939,
5.3075000000000001,-0.067000985145568848,
5.3099999999999996,-0.081305108964443207,
5.3125,-0.087988376617431641,
5.3150000000000004,-0.094166800379753113,
5.3174999999999999,-0.099696122109889984,
5.3200000000000003,-0.1083507165312767,
5.3224999999999998,-0.11137982457876205,
5.3250000000000002,-0.11354347318410873,
5.3274999999999997,-0.11496186256408691,
5.3300000000000001,-0.1160917729139328,
5.3324999999999996,-0.11613985151052475,
5.335,-0.11604368686676025,
5.3375000000000004,-0.11597156524658203,
5.3399999999999999,-0.11601965129375458,
5.3425000000000002,-0.11621197313070297,
5.3449999999999998,-0.11647641658782959,
5.3475000000000001,-0.1167408674955368,
5.3499999999999996,-0.11719763278961182,
5.3525,-0.11734187602996826,
5.3550000000000004,-0.11738996207714081,
5.3574999999999999,-0.11738996207714081,
5.3600000000000003,-0.11734187602996826,
5.3624999999999998,-0.11736591905355453,
5.3650000000000002,-0.11741399765014648,
5.3674999999999997,-0.11753420531749725,
5.3700000000000001,-0.11789481341838837,
5.3724999999999996,-0.11813521385192871,
5.375,-0.11837562173604965,
5.3775000000000004,-0.11866410821676254,
5.3799999999999999,-0.1192651242017746,
5.3825000000000003,-0.11957764625549316,
5.3849999999999998,-0.11986613273620605,
5.3875000000000002,-0.12008249759674072,
5.3899999999999997,-0.12022674083709717,
5.3925000000000001,-0.12003441900014877,
5.3949999999999996,-0.11967381089925766,
5.3975,-0.11909683793783188,
5.4000000000000004,-0.11751016229391098,
5.4024999999999999,-0.11657258123159409,
5.4050000000000002,-0.11565904319286346,
5.4074999999999998,-0.11476954072713852,
5.4100000000000001,-0.11335115134716034,
5.4124999999999996,-0.11284630000591278,
5.415,-0.11248569190502167,
5.4175000000000004,-0.11224528402090073,
5.4199999999999999,-0.11195679754018784,
5.4225000000000003,-0.11181255429983139,
5.4249999999999998,-0.11164426803588867,
5.4275000000000002,-0.11137982457876205,
5.4299999999999997,-0.11049032211303711,
5.4325000000000001,-0.10981719195842743,
5.4349999999999996,-0.10895173251628876,
5.4375,-0.10791798681020737,
5.4400000000000004,-0.10534565150737762,
5.4424999999999999,-0.10390321910381317,
5.4450000000000003,-0.10246078670024872,
5.4474999999999998,-0.10106643289327621,
5.4500000000000002,-0.098806619644165039,
5.4524999999999997,-0.09801328182220459,
5.4550000000000001,-0.097532473504543304,
5.4574999999999996,-0.097292065620422363,
5.46,-0.097364187240600586,
5.4625000000000004,-0.097508430480957031,
5.4649999999999999,-0.097604595124721527,
5.4675000000000002,-0.097580552101135254,
5.4699999999999998,-0.09693145751953125,
5.4725000000000001,-0.096330448985099792,
5.4749999999999996,-0.095609232783317566,
5.4775,-0.094815894961357117,
5.4800000000000004,-0.09334941953420639,
5.4824999999999999,-0.092796489596366882,
5.4850000000000003,-0.092387795448303223,
5.4874999999999998,-0.092099308967590332,
5.4900000000000002,-0.091738700866699219,
5.4924999999999997,-0.091522336006164551,
5.4950000000000001,-0.091209813952445984,
5.4974999999999996,-0.090777084231376648,
5.5,-0.089599095284938812,
5.5025000000000004,-0.088974043726921082,
5.5049999999999999,-0.0883970707654953,
5.5075000000000003,-0.087988376617431641,
5.5099999999999998,-0.087820097804069519,
5.5125000000000002,-0.088060498237609863,
5.5149999999999997,-0.08844514936208725,
5.5175000000000001,-0.088901922106742859,
5.5199999999999996,-0.08952697366476059,
5.5225,-0.089502930641174316,
5.5250000000000004,-0.08919040858745575,
5.5274999999999999,-0.088565349578857422,
5.5300000000000002,-0.086642108857631683,
5.5324999999999998,-0.085560284554958344,
5.5350000000000001,-0.0845746248960495,
5.5374999999999996,-0.083805322647094727,
5.54,-0.083180271089076996,
5.5425000000000004,-0.083324514329433441,
5.5449999999999999,-0.083661079406738281,
5.5475000000000003,-0.084141895174980164,
5.5499999999999998,-0.08486311137676239,
5.5525000000000002,-0.084935232996940613,
5.5549999999999997,-0.084742903709411621,
5.5575000000000001,-0.084262095391750336,
5.5599999999999996,-0.082723498344421387,
5.5625,-0.081882081925868988,
5.5650000000000004,-0.081112787127494812,
5.5674999999999999,-0.080511771142482758,
5.5700000000000003,-0.079934798181056976,
5.5724999999999998,-0.079910755157470703,
5.5750000000000002,-0.07995884120464325,
5.5774999999999997,-0.080006919801235199,
5.5800000000000001,-0.079526111483573914,
5.5824999999999996,-0.07887701690196991,
5.585,-0.077891349792480469,
5.5875000000000004,-0.076617203652858734,
5.5899999999999999,-0.073395773768424988,
5.5925000000000002,-0.071664854884147644,
5.5949999999999998,-0.06998201459646225,
5.5975000000000001,-0.068419381976127625,
5.5999999999999996,-0.065774917602539062,
5.6025,-0.0646209716796875,
5.6050000000000004,-0.063563190400600433,
5.6074999999999999,-0.062505409121513367,
5.6100000000000003,-0.060317717492580414,
5.6124999999999998,-0.059259932488203049,
5.6150000000000002,-0.058322351425886154,
5.6174999999999997,-0.057649217545986176,
5.6200000000000001,-0.057577095925807953,
5.6224999999999996,-0.058298312127590179,
5.625,-0.059500336647033691,
5.6275000000000004,-0.060990851372480392,
5.6299999999999999,-0.063779555261135101,
5.6325000000000003,-0.064308449625968933,
5.6349999999999998,-0.063779555261135101,
5.6375000000000002,-0.061856310814619064,
5.6399999999999997,-0.053273838013410568,
5.6425000000000001,-0.046686731278896332,
5.6449999999999996,-0.038993757218122482,
5.6475,-0.030651688575744629,
5.6500000000000004,-0.014472405426204205,
5.6524999999999999,-0.0078372163698077202,
5.6550000000000002,-0.0029089055024087429,
5.6574999999999998,2.4040540665737353e-05,
5.6600000000000001,-0.00062505406094714999,
5.6624999999999996,-0.0038945674896240234,
5.665,-0.0086786355823278427,
5.6675000000000004,-0.014520486816763878,
5.6699999999999999,-0.027406215667724609,
5.6725000000000003,-0.03368079662322998,
5.6749999999999998,-0.039450526237487793,
5.6775000000000002,-0.044643282890319824,
5.6799999999999997,-0.053369998931884766,
5.6825000000000001,-0.057192444801330566,
5.6849999999999996,-0.060870647430419922,
5.6875,-0.064548850059509277,
5.6900000000000004,-0.072169706225395203,
5.6924999999999999,-0.07596810907125473,
5.6950000000000003,-0.079574190080165863,
5.6974999999999998,-0.082723498344421387,
5.7000000000000002,-0.086449787020683289,
5.7024999999999997,-0.086497865617275238,
5.7050000000000001,-0.085103511810302734,
5.7074999999999996,-0.082314811646938324,
5.71,-0.073540017008781433,
5.7125000000000004,-0.068659782409667969,
5.7149999999999999,-0.064524814486503601,
5.7175000000000002,-0.062144797295331955,
5.7199999999999998,-0.066688463091850281,
5.7225000000000001,-0.075343057513237,
5.7249999999999996,-0.088901922106742859,
5.7275,-0.10731697082519531,
5.7300000000000004,-0.15583078563213348,
5.7324999999999999,-0.18302063643932343,
5.7350000000000003,-0.20929694175720215,
5.7374999999999998,-0.23196718096733093,
5.7400000000000002,-0.25444507598876953,
5.7424999999999997,-0.24809837341308594,
5.7450000000000001,-0.22629360854625702,
5.7474999999999996,-0.18684308230876923,
5.75,-0.050461094826459885,
5.7525000000000004,0.045845311135053635,
5.7549999999999999,0.15818676352500916,
5.7575000000000003,0.28259655833244324,
5.7599999999999998,0.54461443424224854,
5.7625000000000002,0.66787028312683105,
5.7649999999999997,0.77549976110458374,
5.7675000000000001,0.85983395576477051,
5.7699999999999996,0.93426346778869629,
5.7725,0.91721874475479126,
5.7750000000000004,0.8635602593421936,
5.7774999999999999,0.7765575647354126,
5.7800000000000002,0.52802646160125732,
5.7824999999999998,0.38373512029647827,
5.7850000000000001,0.23893892765045166,
5.7874999999999996,0.10270118713378906,
5.79,-0.1154426783323288,
5.7925000000000004,-0.18871824443340302,
5.7949999999999999,-0.23660700023174286,
5.7975000000000003,-0.26096007227897644,
5.7999999999999998,-0.25461336970329285,
5.8025000000000002,-0.23389041423797607,
5.8049999999999997,-0.20821511745452881,
5.8075000000000001,-0.18174648284912109,
5.8099999999999996,-0.13748785853385925,
5.8125,-0.12222211062908173,
5.8150000000000004,-0.11147598922252655,
5.8174999999999999,-0.10435998439788818,
5.8200000000000003,-0.096234284341335297,
5.8224999999999998,-0.093036890029907227,
5.8250000000000002,-0.089454852044582367,
5.8274999999999997,-0.085271798074245453,
5.8300000000000001,-0.075583457946777344,
5.8324999999999996,-0.070751309394836426,
5.835,-0.06644805520772934,
5.8375000000000004,-0.062890052795410156,
5.8399999999999999,-0.058346390724182129,
5.8425000000000002,-0.057144366204738617,
5.8449999999999998,-0.056351028382778168,
5.8475000000000001,-0.055701933801174164,
5.8499999999999996,-0.053946971893310547,
5.8525,-0.052576661109924316,
5.8550000000000004,-0.050797663629055023,
5.8574999999999999,-0.048682093620300293,
5.8600000000000003,-0.04370570182800293,
5.8624999999999998,-0.041013162583112717,
5.8650000000000002,-0.03829658031463623,
5.8674999999999997,-0.035580001771450043,
5.8700000000000001,-0.030291080474853516,
5.8724999999999996,-0.027742784470319748,
5.875,-0.025266608223319054,
5.8775000000000004,-0.022862553596496582,
5.8799999999999999,-0.018318891525268555,
5.8825000000000003,-0.0161312036216259,
5.8849999999999998,-0.014015635475516319,
5.8875000000000002,-0.011900067329406738,
5.8899999999999997,-0.0075006484985351562,
5.8925000000000001,-0.0051206350326538086,
5.8949999999999996,-0.0025482974015176296,
5.8975,0.00016828379011712968,
5.9000000000000004,0.0062024593353271484,
5.9024999999999999,0.009447932243347168,
5.9050000000000002,0.012837648391723633,
5.9074999999999998,0.016323527321219444,
5.9100000000000001,0.023559730499982834,
5.9124999999999996,0.027310054749250412,
5.915,0.031132500618696213,
5.9175000000000004,0.035075150430202484,
5.9199999999999999,0.043297015130519867,
5.9225000000000003,0.047624312341213226,
5.9249999999999998,0.052119892090559006,
5.9275000000000002,0.056807797402143478,
5.9299999999999997,0.066928863525390625,
5.9325000000000001,0.072410106658935547,
5.9349999999999996,0.078203879296779633,
5.9375,0.084358260035514832,
5.9400000000000004,0.097796916961669922,
5.9424999999999999,0.10503312200307846,
5.9450000000000003,0.11258184909820557,
5.9474999999999998,0.12034694850444794,
5.9500000000000002,0.1362377405166626,
5.9524999999999997,0.14409899711608887,
5.9550000000000001,0.15174388885498047,
5.9574999999999996,0.15905222296714783,
5.96,0.17208218574523926,
5.9625000000000004,0.17768363654613495,
5.9649999999999999,0.18261194229125977,
5.9675000000000002,0.18693923950195312,
5.9699999999999998,0.19395908713340759,
5.9725000000000001,0.19689202308654785,
5.9749999999999996,0.19956052303314209,
5.9775,0.20203670859336853,
5.9800000000000004,0.20636400580406189,
5.9824999999999999,0.20799875259399414,
5.9850000000000003,0.20903250575065613,
5.9874999999999998,0.20920078456401825,
5.9900000000000002,0.20593127608299255,
5.9924999999999997,0.20206074416637421,
5.9950000000000001,0.19655546545982361,
5.9974999999999996,0.18936733901500702,
6,0.17049551010131836,87.751373291015625
6.0025000000000004,0.15922050178050995,
6.0049999999999999,0.14703194797039032,
6.0075000000000003,0.13424238562583923,
6.0099999999999998,0.10755737870931625,
6.0125000000000002,0.094022557139396667,
6.0149999999999997,0.080511771142482758,
6.0175000000000001,0.067049071192741394,
6.0199999999999996,0.040724676102399826,
6.0225,0.028079351410269737,
6.0250000000000004,0.015962919220328331,
6.0274999999999999,0.0045436620712280273,
6.0300000000000002,-0.015506148338317871,
6.0324999999999998,-0.023920338600873947,
6.0350000000000001,-0.031276743859052658,
6.0374999999999996,-0.037599407136440277,
6.04,-0.047912798821926117,
6.0425000000000004,-0.052336256951093674,
6.0449999999999999,-0.056519310921430588,
6.0475000000000003,-0.060630243271589279,
6.0499999999999998,-0.068876147270202637,
6.0525000000000002,-0.072939001023769379,
6.0549999999999997,-0.076785489916801453,
6.0575000000000001,-0.080271363258361816,
6.0599999999999996,-0.08553624153137207,
6.0625,-0.087146960198879242,
6.0650000000000004,-0.088036462664604187,
6.0674999999999999,-0.088300906121730804,
6.0700000000000003,-0.087483525276184082,
6.0724999999999998,-0.086714230477809906,
6.0750000000000002,-0.085920892655849457,
6.0774999999999997,-0.085175633430480957,
6.0800000000000001,-0.084069773554801941,
6.0824999999999996,-0.083709165453910828,
6.085,-0.083468757569789886,
6.0875000000000004,-0.083276435732841492,
6.0899999999999999,-0.082987949252128601,
6.0925000000000002,-0.082915827631950378,
6.0949999999999998,-0.082891784608364105,
6.0975000000000001,-0.082987949252128601,
6.0999999999999996,-0.083588957786560059,
6.1025,-0.084069773554801941,
6.1050000000000004,-0.084598660469055176,
6.1074999999999999,-0.085103511810302734,
6.1100000000000003,-0.085680484771728516,
6.1124999999999998,-0.085560284554958344,
6.1150000000000002,-0.085079476237297058,
6.1174999999999997,-0.084262095391750336,
6.1200000000000001,-0.081737838685512543,
6.1224999999999996,-0.08024732768535614,
6.125,-0.078780852258205414,
6.1275000000000004,-0.077434584498405457,
6.1299999999999999,-0.075559422373771667,
6.1325000000000003,-0.075126692652702332,
6.1349999999999998,-0.075006484985351562,
6.1375000000000002,-0.075174771249294281,
6.1399999999999997,-0.075920030474662781,
6.1425000000000001,-0.076280638575553894,
6.1449999999999996,-0.076497003436088562,
6.1475,-0.076521039009094238,
6.1500000000000004,-0.075871944427490234,
6.1524999999999999,-0.075270935893058777,
6.1550000000000002,-0.074573755264282227,
6.1574999999999998,-0.073828503489494324,
6.1600000000000001,-0.072530314326286316,
6.1624999999999996,-0.072025462985038757,
6.165,-0.071616768836975098,
6.1675000000000004,-0.071232125163078308,
6.1699999999999999,-0.070390701293945312,
6.1725000000000003,-0.069813728332519531,
6.1749999999999998,-0.069116555154323578,
6.1775000000000002,-0.068323217332363129,
6.1799999999999997,-0.066640377044677734,
6.1825000000000001,-0.065919160842895508,
6.1849999999999996,-0.06531815230846405,
6.1875,-0.064909458160400391,
6.1900000000000004,-0.064548850059509277,
6.1924999999999999,-0.064452692866325378,
6.1950000000000003,-0.064332485198974609,
6.1974999999999998,-0.064092084765434265,
6.2000000000000002,-0.062986217439174652,
6.2024999999999997,-0.062144797295331955,
6.2050000000000001,-0.061159133911132812,
6.2074999999999996,-0.060149431228637695,
6.21,-0.058370433747768402,
6.2125000000000004,-0.057769417762756348,
6.2149999999999999,-0.05738477036356926,
6.2175000000000002,-0.057192444801330566,
6.2199999999999998,-0.057240527123212814,
6.2225000000000001,-0.057288609445095062,
6.2249999999999996,-0.057264566421508789,
6.2275,-0.057072244584560394,
6.2300000000000004,-0.056086581200361252,
6.2324999999999999,-0.055341325700283051,
6.2350000000000003,-0.054451823234558105,
6.2374999999999998,-0.053514242172241211,
6.2400000000000002,-0.051663123071193695,
6.2424999999999997,-0.050845742225646973,
6.2450000000000001,-0.050100486725568771,
6.2474999999999996,-0.049475431442260742,
6.25,-0.048513811081647873,
6.2525000000000004,-0.04815320298075676,
6.2549999999999999,-0.047936838120222092,
6.2575000000000003,-0.047816634178161621,
6.2599999999999998,-0.048008959740400314,
6.2625000000000002,-0.048345528542995453,
6.2649999999999997,-0.048826336860656738,
6.2675000000000001,-0.049379270523786545,
6.2699999999999996,-0.050388973206281662,
6.2725,-0.050677459686994553,
6.2750000000000004,-0.050677459686994553,
6.2774999999999999,-0.050340890884399414,
6.2800000000000002,-0.048634015023708344,
6.2824999999999998,-0.047335825860500336,
6.2850000000000001,-0.045893393456935883,
6.2874999999999996,-0.044450961053371429,
6.29,-0.042046904563903809,
6.2925000000000004,-0.041325688362121582,
6.2949999999999999,-0.040965080261230469,
6.2975000000000003,-0.040965080261230469,
6.2999999999999998,-0.041830539703369141,
6.3025000000000002,-0.04245559498667717,
6.3049999999999997,-0.043080650269985199,
6.3075000000000001,-0.043633580207824707,
6.3099999999999996,-0.044138431549072266,
6.3125,-0.044090352952480316,
6.3150000000000004,-0.043873988091945648,
6.3174999999999999,-0.043465297669172287,
6.3200000000000003,-0.042239230126142502,
6.3224999999999998,-0.041421853005886078,
6.3250000000000002,-0.040436189621686935,
6.3274999999999997,-0.039282243698835373,
6.3300000000000001,-0.036349296569824219,
6.3324999999999996,-0.0345943383872509,
6.335,-0.032695136964321136,
6.3375000000000004,-0.030747851356863976,
6.3399999999999999,-0.027045607566833496,
6.3425000000000002,-0.025555094704031944,
6.3449999999999998,-0.024401148781180382,
6.3475000000000001,-0.023655891418457031,
6.3499999999999996,-0.023391446098685265,
6.3525,-0.023776095360517502,
6.3550000000000004,-0.024329027161002159,
6.3574999999999999,-0.024930041283369064,
6.3600000000000003,-0.025579135864973068,
6.3624999999999998,-0.025266608223319054,
6.3650000000000002,-0.024377107620239258,
6.3674999999999997,-0.022790431976318359,
6.3700000000000001,-0.017261108383536339,
6.3724999999999996,-0.013342499732971191,
6.375,-0.0087507572025060654,
6.3775000000000004,-0.0036060810089111328,
6.3799999999999999,0.0075487298890948296,
6.3825000000000003,0.013126134872436523,
6.3849999999999998,0.018318891525268555,
6.3875000000000002,0.02291063591837883,
6.3899999999999997,0.029185216873884201,
6.3925000000000001,0.030459364876151085,
6.3949999999999996,0.03031512163579464,
6.3975,0.028728445991873741,
6.4000000000000004,0.021444162353873253,
6.4024999999999999,0.016059082001447678,
6.4050000000000002,0.0098806619644165039,
6.4074999999999998,0.0031733512878417969,
6.4100000000000001,-0.010577837936580181,
6.4124999999999996,-0.017068784683942795,
6.415,-0.023054879158735275,
6.4175000000000004,-0.028391879051923752,
6.4199999999999999,-0.037046473473310471,
6.4225000000000003,-0.040436189621686935,
6.4249999999999998,-0.043297015130519867,
6.4275000000000002,-0.045652985572814941,
6.4299999999999997,-0.048730175942182541,
6.4325000000000001,-0.049259066581726074,
6.4349999999999996,-0.048946540802717209,
6.4375,-0.047576230019330978,
6.4400000000000004,-0.041469931602478027,
6.4424999999999999,-0.036974351853132248,
6.4450000000000003,-0.031949877738952637,
6.4474999999999998,-0.02706964872777462,
6.4500000000000002,-0.021275877952575684,
6.4524999999999997,-0.022381743416190147,
6.4550000000000001,-0.027478337287902832,
6.4574999999999996,-0.037262838333845139,
6.46,-0.072073541581630707,
6.4625000000000004,-0.096282362937927246,
6.4649999999999999,-0.12359242141246796,
6.4675000000000002,-0.15205642580986023,
6.4699999999999998,-0.20256559550762177,
6.4725000000000001,-0.21869680285453796,
6.4749999999999996,-0.22449056804180145,
6.4775,-0.21694183349609375,
6.4800000000000004,-0.15167176723480225,
6.4824999999999999,-0.090656876564025879,
6.4850000000000003,-0.010241270065307617,
6.4874999999999998,0.088324949145317078,
6.4900000000000002,0.32755237817764282,
6.4924999999999997,0.4583088755607605,
6.4950000000000001,0.58769506216049194,
6.4974999999999996,0.7081141471862793,
6.5,0.89096647500991821,
6.5025000000000004,0.93984091281890869,
6.5049999999999999,0.95390462875366211,
6.5075000000000003,0.9312584400177002,
6.5099999999999998,0.78189456462860107,
6.5125000000000002,0.66491329669952393,
6.5149999999999997,0.52987754344940186,
6.5175000000000001,0.38609108328819275,
6.5199999999999996,0.10981719195842743,
6.5225,-0.0063467025756835938,
6.5250000000000004,-0.10015289485454559,
6.5274999999999999,-0.16878864169120789,
6.5300000000000002,-0.23187100887298584,
6.5324999999999998,-0.23206333816051483,
6.5350000000000001,-0.21749477088451385,
6.5374999999999996,-0.19352635741233826,
6.54,-0.13681471347808838,
6.5425000000000004,-0.11157214641571045,
6.5449999999999999,-0.091402135789394379,
6.5475000000000003,-0.07704993337392807,
6.5499999999999998,-0.063923798501491547,
6.5525000000000002,-0.062721773982048035,
6.5549999999999997,-0.063130460679531097,
6.5575000000000001,-0.063803598284721375,
6.5599999999999996,-0.062409244477748871,
6.5625,-0.059500336647033691,
6.5650000000000004,-0.05522112175822258,
6.5674999999999999,-0.049860082566738129,
6.5700000000000003,-0.037984054535627365,
6.5724999999999998,-0.032334528863430023,
6.5750000000000002,-0.027310054749250412,
6.5774999999999997,-0.02307891845703125,
6.5800000000000001,-0.016924541443586349,
6.5824999999999996,-0.014736851677298546,
6.585,-0.012837648391723633,
6.5875000000000004,-0.01105864904820919,
6.5899999999999999,-0.0071160001680254936,
6.5925000000000002,-0.0048081083223223686,
6.5949999999999998,-0.002283851383253932,
6.5975000000000001,0.00038464865065179765,
6.5999999999999996,0.0057216486893594265,
6.6025,0.0081257028505206108,
6.6050000000000004,0.01028935145586729,
6.6074999999999999,0.01214047335088253,
6.6100000000000003,0.015169581398367882,
6.6124999999999998,0.016539892181754112,
6.6150000000000002,0.018030405044555664,
6.6174999999999997,0.019689202308654785,
6.6200000000000001,0.023896297439932823,
6.6224999999999996,0.02644459530711174,
6.625,0.029209256172180176,
6.6275000000000004,0.032094120979309082,
6.6299999999999999,0.037815771996974945,
6.6325000000000003,0.040532350540161133,
6.6349999999999998,0.043104689568281174,
6.6375000000000002,0.045580863952636719,
6.6399999999999997,0.050629377365112305,
6.6425000000000001,0.053442120552062988,
6.6449999999999996,0.05659143254160881,
6.6475,0.060149431228637695,
6.6500000000000004,0.068587660789489746,
6.6524999999999999,0.073347687721252441,
6.6550000000000002,0.078324079513549805,
6.6574999999999998,0.083444714546203613,
6.6600000000000001,0.093541741371154785,
6.6624999999999996,0.098397932946681976,
6.665,0.10315795987844467,
6.6675000000000004,0.10784586519002914,
6.6699999999999999,0.1175822839140892,
6.6725000000000003,0.12289524078369141,
6.6749999999999998,0.12866497039794922,
6.6775000000000002,0.13498763740062714,
6.6799999999999997,0.14912347495555878,
6.6825000000000001,0.15669624507427216,
6.6849999999999996,0.1643892228603363,
6.6875,0.17191390693187714,
6.6900000000000004,0.18561701476573944,
6.6924999999999999,0.1914348304271698,
6.6950000000000003,0.19643525779247284,
6.6974999999999998,0.20064234733581543,
6.7000000000000002,0.20708522200584412,
6.7024999999999997,0.20965754985809326,
6.7050000000000001,0.21208564937114716,
6.7074999999999996,0.21448969841003418,
6.71,0.21956226229667664,
6.7125000000000004,0.22215864062309265,
6.7149999999999999,0.22458672523498535,
6.7175000000000002,0.22655805945396423,
6.7199999999999998,0.22804856300354004,
6.7225000000000001,0.22691866755485535,
6.7249999999999996,0.22420208156108856,
6.7275,0.2197786271572113,
6.7300000000000004,0.20566682517528534,
6.7324999999999999,0.19617080688476562,
6.7350000000000003,0.18532852828502655,
6.7374999999999998,0.17340442538261414,
6.7400000000000002,0.14741659164428711,
6.7424999999999997,0.13388177752494812,
6.7450000000000001,0.12027482688426971,
6.7474999999999996,0.10673999786376953,
6.75,0.08024732768535614,
6.7525000000000004,0.067457757890224457,
6.7549999999999999,0.055004756897687912,
6.7575000000000003,0.042960446327924728,
6.7599999999999998,0.020386379212141037,
6.7625000000000002,0.010024905204772949,
6.7649999999999997,0.00043272972106933594,
6.7675000000000001,-0.0083180274814367294,
6.7699999999999996,-0.023127000778913498,
6.7725,-0.029185216873884201,
6.7750000000000004,-0.034450095146894455,
6.7774999999999999,-0.038993757218122482,
6.7800000000000002,-0.046542488038539886,
6.7824999999999998,-0.049836039543151855,
6.7850000000000001,-0.05293726921081543,
6.7874999999999996,-0.055918298661708832,
6.79,-0.061567824333906174,
6.7925000000000004,-0.064164206385612488,
6.7949999999999999,-0.066496133804321289,
6.7975000000000003,-0.068491503596305847,
6.7999999999999998,-0.071184039115905762,
6.8025000000000002,-0.071833133697509766,
6.8049999999999997,-0.072073541581630707,
6.8075000000000001,-0.071953341364860535,
6.8099999999999996,-0.07106383889913559,
6.8125,-0.070534944534301758,
6.8150000000000004,-0.070126257836818695,
6.8174999999999999,-0.069909892976284027,
6.8200000000000003,-0.07031857967376709,
6.8224999999999998,-0.070943638682365417,
6.8250000000000002,-0.071809098124504089,
6.8274999999999997,-0.072818800806999207,
6.8300000000000001,-0.07488628476858139,
6.8324999999999996,-0.075703665614128113,
6.835,-0.076280638575553894,
6.8375000000000004,-0.076545082032680511,
6.8399999999999999,-0.076232552528381348,
6.8425000000000002,-0.075775787234306335,
6.8449999999999998,-0.075270935893058777,
6.8475000000000001,-0.074838206171989441,
6.8499999999999996,-0.074669919908046722,
6.8525,-0.075102649629116058,
6.8550000000000004,-0.075847908854484558,
6.8574999999999999,-0.076857611536979675,
6.8600000000000003,-0.079141460359096527,
6.8624999999999998,-0.080054998397827148,
6.8650000000000002,-0.080607935786247253,
6.8674999999999997,-0.080728136003017426,
6.8700000000000001,-0.079478025436401367,
6.8724999999999996,-0.078227922320365906,
6.875,-0.076761446893215179,
6.8775000000000004,-0.07522284984588623,
6.8799999999999999,-0.072674557566642761,
6.8825000000000003,-0.071905255317687988,
6.8849999999999998,-0.071520611643791199,
6.8875000000000002,-0.071520611643791199,
6.8899999999999997,-0.072241827845573425,
6.8925000000000001,-0.072722636163234711,
6.8949999999999996,-0.073083244264125824,
6.8975,-0.073275566101074219,
6.9000000000000004,-0.072722636163234711,
6.9024999999999999,-0.071977376937866211,
6.9050000000000002,-0.070967674255371094,
6.9074999999999998,-0.069693528115749359,
6.9100000000000001,-0.066760584712028503,
6.9124999999999996,-0.065246030688285828,
6.915,-0.063803598284721375,
6.9175000000000004,-0.062505409121513367,
6.9199999999999999,-0.060534082353115082,
6.9225000000000003,-0.059933066368103027,
6.9249999999999998,-0.059596501290798187,
6.9275000000000002,-0.059452258050441742,
6.9299999999999997,-0.059524379670619965,
6.9325000000000001,-0.059548418968915939,
6.9349999999999996,-0.059428215026855469,
6.9375,-0.059067606925964355,
6.9400000000000004,-0.057601135224103928,
6.9424999999999999,-0.056543350219726562,
6.9450000000000003,-0.055341325700283051,
6.9474999999999998,-0.054091215133666992,
6.9500000000000002,-0.05185544490814209,
6.9524999999999997,-0.050989985466003418,
6.9550000000000001,-0.050364933907985687,
6.9574999999999996,-0.049956243485212326,
6.96,-0.049667757004499435,
6.9625000000000004,-0.049715839326381683,
6.9649999999999999,-0.049860082566738129,
6.9675000000000002,-0.050076447427272797,
6.9699999999999998,-0.05077362060546875,
6.9725000000000001,-0.051278471946716309,
6.9749999999999996,-0.051831405609846115,
6.9775,-0.052456460893154144,
6.9800000000000004,-0.053610406816005707,
6.9824999999999999,-0.05401909351348877,
6.9850000000000003,-0.054211419075727463,
6.9874999999999998,-0.054187379777431488,
6.9900000000000002,-0.053514242172241211,
6.9924999999999997,-0.052961312234401703,
6.9950000000000001,-0.052408378571271896,
6.9974999999999996,-0.051927566528320312,
7,-0.051591001451015472,85.539718627929688
7.0025000000000004,-0.05180736631155014,
7.0049999999999999,-0.052240096032619476,
7.0075000000000003,-0.052793025970458984,
7.0099999999999998,-0.053874850273132324,
7.0125000000000002,-0.054187379777431488,
7.0149999999999997,-0.054235458374023438,
7.0175000000000001,-0.05401909351348877,
7.0199999999999996,-0.052841108292341232,
7.0225,-0.052071809768676758,
7.0250000000000004,-0.051302514970302582,
7.0274999999999999,-0.05060533806681633,
7.0300000000000002,-0.049571596086025238,
7.0324999999999998,-0.049186944961547852,
7.0350000000000001,-0.048754215240478516,
7.0374999999999996,-0.048201285302639008,
7.04,-0.046398244798183441,
7.0425000000000004,-0.045027934014797211,
7.0449999999999999,-0.043441258370876312,
7.0475000000000003,-0.041662257164716721,
7.0499999999999998,-0.038176380097866058,
7.0525000000000002,-0.036806069314479828,
7.0549999999999997,-0.035820405930280685,
7.0575000000000001,-0.035387676209211349,
7.0599999999999996,-0.036060810089111328,
7.0625,-0.037070512771606445,
7.0650000000000004,-0.038344662636518478,
7.0674999999999999,-0.039666891098022461,
7.0700000000000003,-0.041566096246242523,
7.0724999999999998,-0.041710339486598969,
7.0750000000000002,-0.041061244904994965,
7.0774999999999997,-0.039474569261074066,
7.0800000000000001,-0.033296149224042892,
7.0824999999999996,-0.028800567612051964,
7.085,-0.023511648178100586,
7.0875000000000004,-0.017645757645368576,
7.0899999999999999,-0.0054812431335449219,
7.0925000000000002,0.00021636486053466797,
7.0949999999999998,0.0051687164232134819,
7.0975000000000001,0.0090873241424560547,
7.0999999999999996,0.012981891632080078,
7.1025,0.012717446312308311,
7.1050000000000004,0.010962486267089844,
7.1074999999999999,0.0078852977603673935,
7.1100000000000003,-0.0015866756439208984,
7.1124999999999998,-0.0074285268783569336,
7.1150000000000002,-0.013679067604243755,
7.1174999999999997,-0.020049810409545898,
7.1200000000000001,-0.032406650483608246,
7.1224999999999996,-0.038104258477687836,
7.125,-0.043417215347290039,
7.1275000000000004,-0.048249363899230957,
7.1299999999999999,-0.056519310921430588,
7.1325000000000003,-0.059933066368103027,
7.1349999999999998,-0.06286601722240448,
7.1375000000000002,-0.065246030688285828,
7.1399999999999997,-0.067986652255058289,
7.1425000000000001,-0.06815493106842041,
7.1449999999999996,-0.067385636270046234,
7.1475,-0.065606638789176941,
7.1500000000000004,-0.059356093406677246,
7.1524999999999999,-0.055413447320461273,
7.1550000000000002,-0.051542919129133224,
7.1574999999999998,-0.048513811081647873,
7.1600000000000001,-0.048369567841291428,
7.1624999999999996,-0.053105555474758148,
7.165,-0.06212075799703598,
7.1675000000000004,-0.075823865830898285,
7.1699999999999999,-0.11695723235607147,
7.1725000000000003,-0.14277677237987518,
7.1749999999999998,-0.17006278038024902,
7.1775000000000002,-0.19653141498565674,
7.1799999999999997,-0.23578962683677673,
7.1825000000000001,-0.24230460822582245,
7.1849999999999996,-0.23590981960296631,
7.1875,-0.2138165682554245,
7.1900000000000004,-0.11491378396749496,
7.1924999999999999,-0.036661826074123383,
7.1950000000000003,0.059620540589094162,
7.1974999999999998,0.17121672630310059,
7.2000000000000002,0.42210382223129272,
7.2024999999999997,0.54894173145294189,
7.2050000000000001,0.6669086217880249,
7.2074999999999996,0.76828759908676147,
7.21,0.89346671104431152,
7.2125000000000004,0.90702557563781738,
7.2149999999999999,0.88461977243423462,
7.2175000000000002,0.82711482048034668,
7.2199999999999998,0.62346738576889038,
7.2225000000000001,0.49126845598220825,
7.2249999999999996,0.35051107406616211,
7.2275,0.21057109534740448,
7.2300000000000004,-0.033752918243408203,
7.2324999999999999,-0.12587627768516541,
7.2350000000000003,-0.19364655017852783,
7.2374999999999998,-0.23687145113945007,
7.2400000000000002,-0.25934934616088867,
7.2424999999999997,-0.24706463515758514,
7.2450000000000001,-0.22576472163200378,
7.2474999999999996,-0.20023366808891296,
7.25,-0.15128712356090546,
7.2525000000000004,-0.13239125907421112,
7.2549999999999999,-0.11827945709228516,
7.2575000000000003,-0.10856708139181137,
7.2599999999999998,-0.098157525062561035,
7.2625000000000002,-0.095056295394897461,
7.2649999999999997,-0.092003151774406433,
7.2675000000000001,-0.088421106338500977,
7.2699999999999996,-0.07921358197927475,
7.2725,-0.074044868350028992,
7.2750000000000004,-0.069044433534145355,
7.2774999999999999,-0.064524814486503601,
7.2800000000000002,-0.057865582406520844,
7.2824999999999998,-0.055750012397766113,
7.2850000000000001,-0.054259501397609711,
7.2874999999999996,-0.053081512451171875,
7.29,-0.050917863845825195,
7.2925000000000004,-0.049571596086025238,
7.2949999999999999,-0.047960877418518066,
7.2975000000000003,-0.046133797615766525,
7.2999999999999998,-0.042046904563903809,
7.3025000000000002,-0.039979420602321625,
7.3049999999999997,-0.03796001523733139,
7.3075000000000001,-0.035964649170637131,
7.3099999999999996,-0.03197392076253891,
7.3125,-0.02985835075378418,
7.3150000000000004,-0.027622580528259277,
7.3174999999999999,-0.02524256706237793,
7.3200000000000003,-0.020194053649902344,
7.3224999999999998,-0.017621716484427452,
7.3250000000000002,-0.015073418617248535,
7.3274999999999997,-0.012621283531188965,
7.3300000000000001,-0.0078852977603673935,
7.3324999999999996,-0.0055533647537231445,
7.335,-0.0031252703629434109,
7.3375000000000004,-0.00057697296142578125,
7.3399999999999999,0.0051206350326538086,
7.3425000000000002,0.0082218647003173828,
7.3449999999999998,0.011443297378718853,
7.3475000000000001,0.014640688896179199,
7.3499999999999996,0.020722946152091026,
7.3525,0.023511648178100586,
7.3550000000000004,0.026156108826398849,
7.3574999999999999,0.028728445991873741,
7.3600000000000003,0.034257769584655762,
7.3624999999999998,0.037503242492675781,
7.3650000000000002,0.041301649063825607,
7.3674999999999997,0.045701067894697189,
7.3700000000000001,0.056447189301252365,
7.3724999999999996,0.062649652361869812,
7.375,0.069212719798088074,
7.3775000000000004,0.075992152094841003,
7.3799999999999999,0.08952697366476059,
7.3825000000000003,0.096041962504386902,
7.3849999999999998,0.102292500436306,
7.3875000000000002,0.10825455188751221,
7.3899999999999997,0.11952956765890121,
7.3925000000000001,0.12496273219585419,
7.3949999999999996,0.13034781813621521,
7.3975,0.13578097522258759,
7.4000000000000004,0.14679154753684998,
7.4024999999999999,0.1523689478635788,
7.4050000000000002,0.15792231261730194,
7.4074999999999998,0.16337952017784119,
7.4100000000000001,0.17359673976898193,
7.4124999999999996,0.17814040184020996,
7.415,0.18213114142417908,
7.4175000000000004,0.18542468547821045,
7.4199999999999999,0.18941542506217957,
7.4225000000000003,0.18992027640342712,
7.4249999999999998,0.18931925296783447,
7.4275000000000002,0.18754026293754578,
7.4299999999999997,0.18059253692626953,
7.4325000000000001,0.17551998794078827,
7.4349999999999996,0.16946177184581757,
7.4375,0.16253809630870819,
7.4400000000000004,0.14640688896179199,
7.4424999999999999,0.13731956481933594,
7.4450000000000003,0.1275591105222702,
7.4474999999999998,0.11714955419301987,
7.4500000000000002,0.094335079193115234,
7.4524999999999997,0.081906124949455261,
7.4550000000000001,0.068828068673610687,
7.4574999999999996,0.05522112175822258,
7.46,0.026973485946655273,
7.4625000000000004,0.012741486541926861,
7.4649999999999999,-0.0012501081218943,
7.4675000000000002,-0.014688770286738873,
7.4699999999999998,-0.038945674896240234,
7.4725000000000001,-0.04935523122549057,
7.4749999999999996,-0.058442555367946625,
7.4775,-0.0661114901304245,
7.4800000000000004,-0.077410541474819183,
7.4824999999999999,-0.081281065940856934,
7.4850000000000003,-0.084238052368164062,
7.4874999999999998,-0.086545944213867188,
7.4900000000000002,-0.090127989649772644,
7.4924999999999997,-0.091882944107055664,
7.4950000000000001,-0.093830227851867676,
7.4974999999999996,-0.096041962504386902,
7.5,-0.10135491937398911,
7.5025000000000004,-0.10423978418111801,
7.5049999999999999,-0.10712464898824692,
7.5075000000000003,-0.10984122753143311,
7.5099999999999998,-0.11416852474212646,
7.5125000000000002,-0.11558692157268524,
7.5149999999999997,-0.11645238101482391,
7.5175000000000001,-0.11681298911571503,
7.5199999999999996,-0.11623601615428925,
7.5225,-0.11549075692892075,
7.5250000000000004,-0.1146012544631958,
7.5274999999999999,-0.11363963782787323,
7.5300000000000002,-0.11171638965606689,
7.5324999999999998,-0.11082689464092255,
7.5350000000000001,-0.1100335568189621,
7.5374999999999996,-0.10933637619018555,
7.54,-0.10847091674804688,
7.5425000000000004,-0.10837475955486298,
7.5449999999999999,-0.1085430383682251,
7.5475000000000003,-0.10902385413646698,
7.5499999999999998,-0.11080285161733627,
7.5525000000000002,-0.11202891916036606,
7.5549999999999997,-0.11335115134716034,
7.5575000000000001,-0.1146974191069603,
7.5599999999999996,-0.11690914630889893,
7.5625,-0.11753420531749725,
7.5650000000000004,-0.1177746057510376,
7.5674999999999999,-0.11753420531749725,
7.5700000000000003,-0.11568307876586914,
7.5724999999999998,-0.11416852474212646,
7.5750000000000002,-0.11238952726125717,
7.5774999999999997,-0.11051436513662338,
7.5800000000000001,-0.10700444877147675,
7.5824999999999996,-0.10563413798809052,
7.585,-0.10467251390218735,
7.5875000000000004,-0.10419170558452606,
7.5899999999999999,-0.10457634925842285,
7.5925000000000002,-0.10529756546020508,
7.5949999999999998,-0.1062111109495163,
7.5975000000000001,-0.10719677060842514,
7.5999999999999996,-0.10890364646911621,
7.6025,-0.10943254083395004,
7.6050000000000004,-0.10972102731466293,
7.6074999999999999,-0.10976910591125488,
7.6100000000000003,-0.10926425457000732,
7.6124999999999998,-0.10875940322875977,
7.6150000000000002,-0.10813435167074203,
7.6174999999999997,-0.10731697082519531,
7.6200000000000001,-0.10510524362325668,
7.6224999999999996,-0.10361473262310028,
7.625,-0.10188381373882294,
7.6275000000000004,-0.099912486970424652,
7.6299999999999999,-0.095633268356323242,
7.6325000000000003,-0.093565784394741058,
7.6349999999999998,-0.091738700866699219,
7.6375000000000002,-0.090296268463134766,
7.6399999999999997,-0.088877879083156586,
7.6425000000000001,-0.088925957679748535,
7.6449999999999996,-0.089430809020996094,
7.6475,-0.090248189866542816,
7.6500000000000004,-0.092291638255119324,
7.6524999999999999,-0.093205176293849945,
7.6550000000000002,-0.093902349472045898,
7.6574999999999998,-0.094311043620109558,
7.6600000000000001,-0.09414275735616684,
7.6624999999999996,-0.093613862991333008,
7.665,-0.092916689813137054,
7.6675000000000004,-0.092051230370998383,
7.6699999999999999,-0.090200111269950867,
7.6725000000000003,-0.089286565780639648,
7.6749999999999998,-0.08844514936208725,
7.6775000000000002,-0.08769989013671875,
