Data Set 1:Time(s),Data Set 1:EKG(mV),Data Set 1:Heart Rate(bpm),Data Set 2:Time(s),Data Set 2:EKG(mV),Data Set 2:Heart Rate(bpm)
0,0.14025251567363739,88.560882568359375,0,0.049331188201904297,92.843330383300781
0.0025000000000000001,0.14520487189292908,,0.0025000000000000001,0.061255298554897308,
0.0050000000000000001,0.1482580155134201,,0.0050000000000000001,0.071160003542900085,
0.0074999999999999997,0.150686115026474,,0.0074999999999999997,0.077626906335353851,
0.01,0.15342673659324646,,0.01,0.079670354723930359,
0.012500000000000001,0.15698473155498505,,0.012500000000000001,0.077025890350341797,
0.014999999999999999,0.16660094261169434,,0.014999999999999999,0.059957109391689301,
0.017500000000000002,0.17191390693187714,,0.017500000000000002,0.036349296569824219,
0.02,0.17693838477134705,,0.02,0.02632439136505127,
0.022499999999999999,0.18499195575714111,,0.022499999999999999,0.019400715827941895,
0.025000000000000001,0.18809318542480469,,0.025000000000000001,0.016395648941397667,
0.0275,0.19092997908592224,,0.0275,0.022381743416190147,
0.029999999999999999,0.19398312270641327,,0.029999999999999999,0.030074715614318848,
0.032500000000000001,0.20189246535301208,,0.032500000000000001,0.039306282997131348,
0.035000000000000003,0.20686885714530945,,0.035000000000000003,0.048778258264064789,
0.037499999999999999,0.21208564937114716,,0.037499999999999999,0.06353914737701416,
0.040000000000000001,0.21694183349609375,,0.040000000000000001,0.067217350006103516,
0.042500000000000003,0.222399041056633,,0.042500000000000003,0.068010687828063965,
0.044999999999999998,0.22177398204803467,,0.044999999999999998,0.066063404083251953,
0.047500000000000001,0.21857659518718719,,0.047500000000000001,0.0561346635222435,
0.050000000000000003,0.2131674736738205,,0.050000000000000003,0.049643717706203461,
0.052499999999999998,0.1992720365524292,,0.052499999999999998,0.043104689568281174,
0.055,0.19333402812480927,,0.055,0.037214756011962891,
0.057500000000000002,0.18989622592926025,,0.057500000000000002,0.029257338494062424,
0.059999999999999998,0.18999239802360535,,0.059999999999999998,0.027646621689200401,
0.0625,0.20230114459991455,,0.0625,0.027646621689200401,
0.065000000000000002,0.21367232501506805,,0.065000000000000002,0.02906501293182373,
0.067500000000000004,0.22691866755485535,,0.067500000000000004,0.035003028810024261,
0.070000000000000007,0.24033328890800476,,0.070000000000000007,0.038801431655883789,
0.072499999999999995,0.26081582903862,,0.072499999999999995,0.042695999145507812,
0.074999999999999997,0.26533544063568115,,0.074999999999999997,0.046350162476301193,
0.077499999999999999,0.26545566320419312,,0.077499999999999999,0.05214393138885498,
0.080000000000000002,0.26175341010093689,,0.080000000000000002,0.054091215133666992,
0.082500000000000004,0.24843494594097137,,0.082500000000000004,0.055413447320461273,
0.085000000000000006,0.24261713027954102,,0.085000000000000006,0.056182742118835449,
0.087499999999999994,0.23990055918693542,,0.087499999999999994,0.056663554161787033,
0.089999999999999997,0.24165551364421844,,0.089999999999999997,0.05659143254160881,
0.092499999999999999,0.26021480560302734,,0.092499999999999999,0.05647122859954834,
0.095000000000000001,0.27576905488967896,,0.095000000000000001,0.056326985359191895,
0.097500000000000003,0.29346287250518799,,0.097500000000000003,0.056182742118835449,
0.10000000000000001,0.31122884154319763,,0.10000000000000001,0.055870216339826584,
0.10249999999999999,0.33938032388687134,,0.10249999999999999,0.055725973099470139,
0.105,0.34712135791778564,,0.105,0.055629812180995941,
0.1075,0.35012644529342651,,0.1075,0.055750012397766113,
0.11,0.34906864166259766,,0.11,0.056110620498657227,
0.1125,0.34051021933555603,,0.1125,0.05675971508026123,
0.115,0.33668777346611023,,0.115,0.057721339166164398,
0.11749999999999999,0.33546170592308044,,0.11749999999999999,0.060558121651411057,
0.12,0.33791384100914001,,0.12,0.0622890405356884,
0.1225,0.35498261451721191,,0.1225,0.064092084765434265,
0.125,0.36830109357833862,,0.125,0.065871082246303558,
0.1275,0.38308602571487427,,0.1275,0.06890019029378891,
0.13,0.3977026641368866,,0.13,0.070030093193054199,
0.13250000000000001,0.42087775468826294,,0.13250000000000001,0.070799395442008972,
0.13500000000000001,0.42772930860519409,,0.13500000000000001,0.071256160736083984,
0.13750000000000001,0.43123921751976013,,0.13750000000000001,0.071208082139492035,
0.14000000000000001,0.43203255534172058,,0.14000000000000001,0.070799395442008972,
0.14249999999999999,0.42977273464202881,,0.14249999999999999,0.070222422480583191,
0.14499999999999999,0.42924386262893677,,0.14499999999999999,0.069549284875392914,
0.14749999999999999,0.43054205179214478,,0.14749999999999999,0.068299174308776855,
0.14999999999999999,0.43431639671325684,,0.14999999999999999,0.067938566207885742,
0.1525,0.44936579465866089,,0.1525,0.067962609231472015,
0.155,0.45955896377563477,,0.155,0.068443417549133301,
0.1575,0.47032913565635681,,0.1575,0.071256160736083984,
0.16,0.48054635524749756,,0.16,0.073708295822143555,
0.16250000000000001,0.49559575319290161,,0.16250000000000001,0.076833568513393402,
0.16500000000000001,0.499153733253479,,0.16500000000000001,0.080511771142482758,
0.16750000000000001,0.49975475668907166,,0.16750000000000001,0.088613435626029968,
0.17000000000000001,0.49761515855789185,,0.17000000000000001,0.092411838471889496,
0.17249999999999999,0.48701328039169312,,0.17249999999999999,0.095585189759731293,
0.17499999999999999,0.47972899675369263,,0.17499999999999999,0.097748838365077972,
0.17749999999999999,0.47184368968009949,,0.17749999999999999,0.097893081605434418,
0.17999999999999999,0.46374201774597168,,0.17999999999999999,0.095489025115966797,
0.1825,0.44751465320587158,,0.1825,0.091378092765808105,
0.185,0.43924471735954285,,0.185,0.085728570818901062,
0.1875,0.43056607246398926,,0.1875,0.070775352418422699,
0.19,0.42126238346099854,,0.19,0.062240958213806152,
0.1925,0.39996248483657837,,0.1925,0.053490202873945236,
0.19500000000000001,0.38784605264663696,,0.19500000000000001,0.044955812394618988,
0.19750000000000001,0.37491223216056824,,0.19750000000000001,0.029545824974775314,
0.20000000000000001,0.36137741804122925,,0.20000000000000001,0.023054879158735275,
0.20250000000000001,0.33377885818481445,,0.20250000000000001,0.017429392784833908,
0.20499999999999999,0.32041233777999878,,0.20499999999999999,0.012621283531188965,
0.20749999999999999,0.30764681100845337,,0.20749999999999999,0.0049283108673989773,
0.20999999999999999,0.29569864273071289,,0.20999999999999999,0.0017790000420063734,
0.21249999999999999,0.27459105849266052,,0.21249999999999999,-0.0010577838402241468,
0.215,0.26540756225585938,,0.215,-0.0035820405464619398,
0.2175,0.25701743364334106,,0.2175,-0.0075006484985351562,
0.22,0.24937252700328827,,0.22,-0.0085584325715899467,
0.2225,0.23571750521659851,,0.2225,-0.0087747974321246147,
0.22500000000000001,0.22951504588127136,,0.22500000000000001,-0.0080054998397827148,
0.22750000000000001,0.22367319464683533,,0.22750000000000001,-0.0034377973061054945,
0.23000000000000001,0.21809577941894531,,0.23000000000000001,-4.8081081331474707e-05,
0.23250000000000001,0.20771026611328125,,0.23250000000000001,0.0034377973061054945,
0.23499999999999999,0.2029021680355072,,0.23499999999999999,0.0062745809555053711,
0.23749999999999999,0.19835850596427917,,0.23749999999999999,0.0063707432709634304,
0.23999999999999999,0.19412736594676971,,0.23999999999999999,0.0017068784218281507,
0.24249999999999999,0.18672287464141846,,0.24249999999999999,-0.0071160001680254936,
0.245,0.18362164497375488,,0.245,-0.020530622452497482,
0.2475,0.18092910945415497,,0.2475,-0.060365796089172363,
0.25,0.17866930365562439,,0.25,-0.085007354617118835,
0.2525,0.17518341541290283,,0.2525,-0.11061052978038788,
0.255,0.17386119067668915,,0.255,-0.13481935858726501,
0.25750000000000001,0.17268320918083191,,0.25750000000000001,-0.16768276691436768,
0.26000000000000001,0.17162542045116425,,0.26000000000000001,-0.17020702362060547,
0.26250000000000001,0.16941368579864502,,0.26250000000000001,-0.15948495268821716,
0.26500000000000001,0.1682116687297821,,0.26500000000000001,-0.1330643892288208,
0.26750000000000002,0.1669134795665741,,0.26750000000000002,-0.027141770347952843,
0.27000000000000002,0.16549508273601532,,0.27000000000000002,0.052648782730102539,
0.27250000000000002,0.16253809630870819,,0.27250000000000002,0.14837822318077087,
0.27500000000000002,0.16107162833213806,,0.27500000000000002,0.25677701830863953,
0.27750000000000002,0.15962919592857361,,0.27750000000000002,0.49158096313476562,
0.28000000000000003,0.15828292071819305,,0.28000000000000003,0.60534083843231201,
0.28249999999999997,0.15575866401195526,,0.28249999999999997,0.70724868774414062,
0.28499999999999998,0.15453259646892548,,0.28499999999999998,0.79028469324111938,
0.28749999999999998,0.15328249335289001,,0.28749999999999998,0.87625366449356079,
0.28999999999999998,0.15191218256950378,,0.28999999999999998,0.87161386013031006,
0.29249999999999998,0.14864265918731689,,0.29249999999999998,0.83379805088043213,
0.29499999999999998,0.14662325382232666,,0.29499999999999998,0.76489788293838501,
0.29749999999999999,0.14431536197662354,,0.29749999999999999,0.55358153581619263,
0.29999999999999999,0.14174303412437439,,0.29999999999999999,0.42556565999984741,
0.30249999999999999,0.13602137565612793,,0.30249999999999999,0.29387158155441284,
0.30499999999999999,0.13304035365581512,,0.30499999999999999,0.1669134795665741,
0.3075,0.13010740280151367,,0.3075,-0.044715404510498047,
0.31,0.12734274566173553,,0.31,-0.11984209716320038,
0.3125,0.12270291894674301,,0.3125,-0.17181774973869324,
0.315,0.12087583541870117,,0.315,-0.20136356353759766,
0.3175,0.11943340301513672,,0.3175,-0.20487348735332489,
0.32000000000000001,0.11825542151927948,,0.32000000000000001,-0.18734793365001678,
0.32250000000000001,0.11650045961141586,,0.32250000000000001,-0.16325931251049042,
0.32500000000000001,0.11568307876586914,,0.32500000000000001,-0.13686279952526093,
0.32750000000000001,0.11479358375072479,,0.32750000000000001,-0.089743338525295258,
0.33000000000000002,0.11373579502105713,,0.33000000000000002,-0.072602435946464539,
0.33250000000000002,0.11104325950145721,,0.33250000000000002,-0.060341756790876389,
0.33500000000000002,0.10943254083395004,,0.33500000000000002,-0.052408378571271896,
0.33750000000000002,0.10767757892608643,,0.33750000000000002,-0.045124094933271408,
0.34000000000000002,0.10592262446880341,,0.34000000000000002,-0.043345093727111816,
0.34250000000000003,0.10255694389343262,,0.34250000000000003,-0.041469931602478027,
0.34499999999999997,0.10106643289327621,,0.34499999999999997,-0.038873553276062012,
0.34749999999999998,0.099744200706481934,,0.34749999999999998,-0.030868053436279297,
0.34999999999999998,0.098614297807216644,,0.34999999999999998,-0.025771459564566612,
0.35249999999999998,0.096739135682582855,,0.35249999999999998,-0.020410418510437012,
0.35499999999999998,0.095945797860622406,,0.35499999999999998,-0.015193621627986431,
0.35749999999999998,0.09517650306224823,,0.35749999999999998,-0.0062986216507852077,
0.35999999999999999,0.094455286860466003,,0.35999999999999999,-0.0028848648071289062,
0.36249999999999999,0.093036890029907227,,0.36249999999999999,-0.00014424324035644531,
0.36499999999999999,0.092363759875297546,,0.36499999999999999,0.002067486522719264,
0.36749999999999999,0.091714665293693542,,0.36749999999999999,0.0056495270691812038,
0.37,0.091089606285095215,,0.37,0.0073323650285601616,
0.3725,0.090007781982421875,,0.3725,0.0091113653033971786,
0.375,0.089502930641174316,,0.375,0.011034607887268066,
0.3775,0.089022122323513031,,0.3775,0.015289783477783203,
0.38,0.088541314005851746,,0.38,0.017549594864249229,
0.38250000000000001,0.087531611323356628,,0.38250000000000001,0.019761323928833008,
0.38500000000000001,0.08702675998210907,,0.38500000000000001,0.021900933235883713,
0.38750000000000001,0.086497865617275238,,0.38750000000000001,0.025771459564566612,
0.39000000000000001,0.085968971252441406,,0.39000000000000001,0.027502378448843956,
0.39250000000000002,0.085127554833889008,,0.39250000000000002,0.029113095253705978,
0.39500000000000002,0.084839068353176117,,0.39500000000000002,0.030675729736685753,
0.39750000000000002,0.084694825112819672,,0.39750000000000002,0.033993326127529144,
0.40000000000000002,0.084622703492641449,,0.40000000000000002,0.03584444522857666,
0.40250000000000002,0.084766946732997894,,0.40250000000000002,0.037935972213745117,
0.40500000000000003,0.084887146949768066,,0.40500000000000003,0.040267907083034515,
0.40749999999999997,0.084935232996940613,,0.40749999999999997,0.045604906976222992,
0.40999999999999998,0.08486311137676239,,0.40999999999999998,0.048537850379943848,
0.41249999999999998,0.08411785215139389,,0.41249999999999998,0.051566958427429199,
0.41499999999999998,0.083372592926025391,,0.41499999999999998,0.054596066474914551,
0.41749999999999998,0.08241097629070282,,0.41749999999999998,0.060461960732936859,
0.41999999999999998,0.081232987344264984,,0.41999999999999998,0.06320258229970932,
0.42249999999999999,0.078444287180900574,,0.42249999999999999,0.065823003649711609,
0.42499999999999999,0.077001854777336121,,0.42499999999999999,0.068347260355949402,
0.42749999999999999,0.075655579566955566,,0.42749999999999999,0.073323652148246765,
0.42999999999999999,0.074453555047512054,,0.42999999999999999,0.075944066047668457,
0.4325,0.072842836380004883,,0.4325,0.078780852258205414,
0.435,0.07248222827911377,,0.435,0.081882081925868988,
0.4375,0.07243414968252182,,0.4375,0.088998079299926758,
0.44,0.072650514543056488,,0.44,0.093036890029907227,
0.4425,0.073588095605373383,,0.4425,0.097388230264186859,
0.44500000000000001,0.074165068566799164,,0.44500000000000001,0.10195593535900116,
0.44750000000000001,0.074669919908046722,,0.44750000000000001,0.111620232462883,
0.45000000000000001,0.075078606605529785,,0.45000000000000001,0.11662065982818604,
0.45250000000000001,0.075439214706420898,,0.45250000000000001,0.12171725928783417,
0.45500000000000002,0.075415179133415222,,0.45500000000000002,0.12688598036766052,
0.45750000000000002,0.075391136109828949,,0.45750000000000002,0.13751189410686493,
0.46000000000000002,0.075439214706420898,,0.46000000000000002,0.1430412232875824,
0.46250000000000002,0.076280638575553894,,0.46250000000000002,0.14873883128166199,
0.46500000000000002,0.077314376831054688,,0.46500000000000002,0.1546047180891037,
0.46750000000000003,0.078828930854797363,,0.46750000000000003,0.16676923632621765,
0.46999999999999997,0.080872379243373871,,0.46999999999999997,0.17292360961437225,
0.47249999999999998,0.086137257516384125,,0.47249999999999998,0.17900586128234863,
0.47499999999999998,0.08907020092010498,,0.47499999999999998,0.18491983413696289,
0.47749999999999998,0.091906987130641937,,0.47749999999999998,0.19573807716369629,
0.47999999999999998,0.09443124383687973,,0.47999999999999998,0.20049810409545898,
0.48249999999999998,0.097532473504543304,,0.48249999999999998,0.20475327968597412,
0.48499999999999999,0.097796916961669922,,0.48499999999999999,0.20847956836223602,
0.48749999999999999,0.097123786807060242,,0.48749999999999999,0.2144656628370285,
0.48999999999999999,0.095537111163139343,,0.48999999999999999,0.2167975902557373,
0.49249999999999999,0.090344354510307312,,0.49249999999999999,0.21869680285453796,
0.495,0.087267160415649414,,0.495,0.22021135687828064,
0.4975,0.084334217011928558,,0.4975,0.22189418971538544,
0.5,0.081882081925868988,,0.5,0.22194227576255798,
0.50249999999999995,0.079886719584465027,,0.50249999999999995,0.22129318118095398,
0.505,0.080848336219787598,,0.505,0.21980266273021698,
0.50749999999999995,0.083252392709255219,,0.50749999999999995,0.2139127254486084,
0.51000000000000001,0.087122917175292969,,0.51000000000000001,0.20927290618419647,
0.51249999999999996,0.098470054566860199,,0.51249999999999996,0.20340701937675476,
0.51500000000000001,0.10529756546020508,,0.51500000000000001,0.19631505012512207,
0.51749999999999996,0.11234144866466522,,0.51749999999999996,0.17854909598827362,
0.52000000000000002,0.11912088096141815,,0.52000000000000002,0.16806742548942566,
0.52249999999999996,0.12991508841514587,,0.52249999999999996,0.15672028064727783,
0.52500000000000002,0.13316056132316589,,0.52500000000000002,0.14470002055168152,
0.52749999999999997,0.13460299372673035,,0.52749999999999997,0.1193612813949585,
0.53000000000000003,0.13414621353149414,,0.53000000000000003,0.10642747581005096,
0.53249999999999997,0.12777547538280487,,0.53249999999999997,0.093589827418327332,
0.53500000000000003,0.12231826782226562,,0.53500000000000003,0.080968543887138367,
0.53749999999999998,0.11577924340963364,,0.53749999999999998,0.056952040642499924,
0.54000000000000004,0.1085430383682251,,0.54000000000000004,0.045725107192993164,
0.54249999999999998,0.093613862991333008,,0.54249999999999998,0.035147272050380707,
0.54500000000000004,0.086594030261039734,,0.54500000000000004,0.025218527764081955,
0.54749999999999999,0.080151163041591644,,0.54749999999999999,0.0074285268783569336,
0.55000000000000004,0.074453555047512054,,0.55000000000000004,-0.00040868920041248202,
0.55249999999999999,0.065246030688285828,,0.55249999999999999,-0.0075727701187133789,
0.55500000000000005,0.061615906655788422,,0.55500000000000005,-0.014039675705134869,
0.5575,0.058466594666242599,,0.5575,-0.025122364982962608,
0.56000000000000005,0.055629812180995941,,0.56000000000000005,-0.029786229133605957,
0.5625,0.050533216446638107,,0.5625,-0.033969283103942871,
0.56499999999999995,0.048177242279052734,,0.56499999999999995,-0.037719607353210449,
0.5675,0.046013593673706055,,0.5675,-0.044138431549072266,
0.56999999999999995,0.044138431549072266,,0.56999999999999995,-0.046951174736022949,
0.57250000000000001,0.042167108505964279,,0.57250000000000001,-0.049571596086025238,
0.57499999999999996,0.042479634284973145,,0.57499999999999996,-0.051999688148498535,
0.57750000000000001,0.043849945068359375,,0.57750000000000001,-0.056375067681074142,
0.57999999999999996,0.046254001557826996,,0.57999999999999996,-0.058298312127590179,
0.58250000000000002,0.053177677094936371,,0.58250000000000002,-0.059981148689985275,
0.58499999999999996,0.05659143254160881,,0.58499999999999996,-0.06137549877166748,
0.58750000000000002,0.058851242065429688,,0.58750000000000002,-0.063322782516479492,
0.58999999999999997,0.058995485305786133,,0.58999999999999997,-0.063827633857727051,
0.59250000000000003,0.048802297562360764,,0.59250000000000003,-0.064068041741847992,
0.59499999999999997,0.036854147911071777,,0.59499999999999997,-0.064116120338439941,
0.59750000000000003,0.01983344554901123,,0.59750000000000003,-0.063971877098083496,
0.59999999999999998,-0.0019713244400918484,,0.59999999999999998,-0.063995920121669769,
0.60250000000000004,-0.055918298661708832,,0.60250000000000004,-0.064164206385612488,
0.60499999999999998,-0.084526538848876953,,0.60499999999999998,-0.064596936106681824,
0.60750000000000004,-0.1108749732375145,,0.60750000000000004,-0.066231690347194672,
0.60999999999999999,-0.13203065097332001,,0.60999999999999999,-0.067385636270046234,
0.61250000000000004,-0.14580588042736053,,0.61250000000000004,-0.068683825433254242,
0.61499999999999999,-0.13227105140686035,,0.61499999999999999,-0.070030093193054199,
0.61750000000000005,-0.10159532725811005,,0.61750000000000005,-0.07248222827911377,
0.62,-0.052071809768676758,,0.62,-0.073419809341430664,
0.62250000000000005,0.10551393032073975,,0.62250000000000005,-0.074092946946620941,
0.625,0.21119615435600281,,0.625,-0.074453555047512054,
0.62749999999999995,0.3307497501373291,,0.62749999999999995,-0.074357390403747559,
0.63,0.45924645662307739,,0.63,-0.074020825326442719,
0.63249999999999995,0.71691298484802246,,0.63249999999999995,-0.073540017008781433,
0.63500000000000001,0.83091318607330322,,0.63500000000000001,-0.072963044047355652,
0.63749999999999996,0.92462325096130371,,0.63749999999999996,-0.071833133697509766,
