Data Set 1:Time(s),Data Set 1:EKG(mV),Data Set 1:Heart Rate(bpm)
0,0.70107024908065796,85.020240783691406
0.0025000000000000001,0.7738649845123291,
0.0050000000000000001,0.81987857818603516,
0.0074999999999999997,0.83507221937179565,
0.01,0.81757068634033203,
0.012500000000000001,0.76785486936569214,
0.014999999999999999,0.58594012260437012,
0.017500000000000002,0.33738493919372559,
0.02,0.20855168998241425,
0.022499999999999999,0.087579689919948578,
0.025000000000000001,-0.018775662407279015,
0.0275,-0.10556201636791229,
0.029999999999999999,-0.21174907684326172,
0.032500000000000001,-0.23230373859405518,
0.035000000000000003,-0.23497223854064941,
0.037499999999999999,-0.22400975227355957,
0.040000000000000001,-0.17989537119865417,
0.042500000000000003,-0.15510956943035126,
0.044999999999999998,-0.13263165950775146,
0.047500000000000001,-0.10041733831167221,
0.050000000000000003,-0.091113649308681488,
0.052499999999999998,-0.085391998291015625,
0.055,-0.082122489809989929,
0.057500000000000002,-0.078444287180900574,
0.059999999999999998,-0.076376795768737793,
0.0625,-0.073612138628959656,
0.065000000000000002,-0.070078179240226746,
0.067500000000000004,-0.065967246890068054,
0.070000000000000007,-0.057192444801330566,
0.072499999999999995,-0.0530574731528759,
0.074999999999999997,-0.049307148903608322,
0.077499999999999999,-0.04598955437541008,
0.080000000000000002,-0.040388107299804688,
0.082500000000000004,-0.037935972213745117,
0.085000000000000006,-0.035604041069746017,
0.087499999999999994,-0.031132500618696213,
0.089999999999999997,-0.028992891311645508,
0.092499999999999999,-0.026901364326477051,
0.095000000000000001,-0.02490600012242794,
0.097500000000000003,-0.021035473793745041,
0.10000000000000001,-0.019088190048933029,
0.10249999999999999,-0.017044743523001671,
0.105,-0.014881094917654991,
0.1075,-0.010145108215510845,
0.11,-0.0075968108139932156,
0.1125,-0.0050244731828570366,
0.115,-0.002524256706237793,
0.11749999999999999,0.002043446060270071,
0.12,0.0039907298050820827,
0.1225,0.0056735677644610405,
0.125,0.0071640810929238796,
0.1275,0.0097845001146197319,
0.13,0.011130770668387413,
0.13250000000000001,0.012693405151367188,
0.13500000000000001,0.014544527046382427,
0.13750000000000001,0.019448798149824142,
0.14000000000000001,0.022525986656546593,
0.14249999999999999,0.025963783264160156,
0.14499999999999999,0.029666027054190636,
0.14749999999999999,0.037286877632141113,
0.14999999999999999,0.040941040962934494,
0.1525,0.044354796409606934,
0.155,0.047456026077270508,
0.1575,0.052865147590637207,
0.16,0.055389404296875,
0.16250000000000001,0.058033864945173264,
0.16500000000000001,0.060990851372480392,
0.16750000000000001,0.068587660789489746,
0.17000000000000001,0.07346789538860321,
0.17249999999999999,0.079117417335510254,
0.17499999999999999,0.085464119911193848,
0.17749999999999999,0.099816322326660156,
0.17999999999999999,0.10748525708913803,
0.1825,0.11522631347179413,
0.185,0.12294332683086395,
0.1875,0.1377282589673996,
0.19,0.14467597007751465,
0.1925,0.15126308798789978,
0.19500000000000001,0.15751361846923828,
0.19750000000000001,0.16869246959686279,
0.20000000000000001,0.17357270419597626,
0.20250000000000001,0.17790000140666962,
0.20499999999999999,0.18162629008293152,
0.20749999999999999,0.18722772598266602,
0.20999999999999999,0.18917500972747803,
0.21249999999999999,0.19064149260520935,
0.215,0.19165119528770447,
0.2175,0.19254069030284882,
0.22,0.19237241148948669,
0.2225,0.19172331690788269,
0.22500000000000001,0.19040107727050781,
0.22750000000000001,0.18494388461112976,
0.23000000000000001,0.18040022253990173,
0.23250000000000001,0.17443816363811493,
0.23499999999999999,0.16698560118675232,
0.23749999999999999,0.14780125021934509,
0.23999999999999999,0.13638198375701904,
0.24249999999999999,0.12409727275371552,
0.245,0.11128365993499756,
0.2475,0.085127554833889008,
0.25,0.072337985038757324,
0.2525,0.059981148689985275,
0.255,0.048129163682460785,
0.25750000000000001,0.026132067665457726,
0.26000000000000001,0.015962919220328331,
0.26250000000000001,0.0062745809555053711,
0.26500000000000001,-0.0029569864273071289,
0.26750000000000002,-0.020073851570487022,
0.27000000000000002,-0.027959149330854416,
0.27250000000000002,-0.035411715507507324,
0.27500000000000002,-0.042383473366498947,
0.27750000000000002,-0.05505283921957016,
0.28000000000000003,-0.06075044721364975,
0.28249999999999997,-0.066039368510246277,
0.28499999999999998,-0.070943638682365417,
0.28749999999999998,-0.079405903816223145,
0.28999999999999998,-0.082867741584777832,
0.29249999999999998,-0.085728570818901062,
0.29499999999999998,-0.087916254997253418,
0.29749999999999999,-0.090176068246364594,
0.29999999999999999,-0.090272232890129089,
0.30249999999999999,-0.08981546014547348,
0.30499999999999999,-0.088901922106742859,
0.3075,-0.086449787020683289,
0.31,-0.085223719477653503,
0.3125,-0.084214016795158386,
0.315,-0.08349280059337616,
0.3175,-0.083011984825134277,
0.32000000000000001,-0.083204314112663269,
0.32250000000000001,-0.083613000810146332,
0.32500000000000001,-0.084069773554801941,
0.32750000000000001,-0.084790989756584167,
0.33000000000000002,-0.08486311137676239,
0.33250000000000002,-0.084598660469055176,
0.33500000000000002,-0.084021687507629395,
0.33750000000000002,-0.081761881709098816,
0.34000000000000002,-0.080223284661769867,
0.34250000000000003,-0.078492365777492523,
0.34499999999999997,-0.076689325273036957,
0.34749999999999998,-0.07346789538860321,
0.34999999999999998,-0.072289906442165375,
0.35249999999999998,-0.071520611643791199,
0.35499999999999998,-0.071256160736083984,
0.35749999999999998,-0.072073541581630707,
0.35999999999999999,-0.073011122643947601,
0.36249999999999999,-0.074141025543212891,
0.36499999999999999,-0.075319014489650726,
0.36749999999999999,-0.077170133590698242,
0.37,-0.077602863311767578,
0.3725,-0.077626906335353851,
0.375,-0.077242255210876465,
0.3775,-0.075487300753593445,
0.38,-0.074333354830741882,
0.38250000000000001,-0.073155365884304047,
0.38500000000000001,-0.072049498558044434,
0.38750000000000001,-0.070366665720939636,
0.39000000000000001,-0.069813728332519531,
0.39250000000000002,-0.069380998611450195,
0.39500000000000002,-0.069020390510559082,
0.39750000000000002,-0.06815493106842041,
0.40000000000000002,-0.067577958106994629,
0.40250000000000002,-0.066880784928798676,
0.40500000000000003,-0.066087447106838226,
0.40749999999999997,-0.064500771462917328,
0.40999999999999998,-0.063827633857727051,
0.41249999999999998,-0.063298746943473816,
0.41499999999999998,-0.062938138842582703,
0.41749999999999998,-0.062529444694519043,
0.41999999999999998,-0.062337122857570648,
0.42249999999999999,-0.06200055405497551,
0.42499999999999999,-0.061495702713727951,
0.42749999999999999,-0.059764783829450607,
0.42999999999999999,-0.058610837906599045,
0.4325,-0.05738477036356926,
0.435,-0.056206785142421722,
0.4375,-0.054427783936262131,
0.44,-0.053898893296718597,
0.4425,-0.053634446114301682,
0.44500000000000001,-0.053562324494123459,
0.44750000000000001,-0.053394041955471039,
0.45000000000000001,-0.0530574731528759,
0.45250000000000001,-0.052456460893154144,
0.45500000000000002,-0.05151887983083725,
0.45750000000000002,-0.048898458480834961,
0.46000000000000002,-0.047480069100856781,
0.46250000000000002,-0.046205919235944748,
0.46500000000000002,-0.045220255851745605,
0.46750000000000003,-0.044499039649963379,
0.46999999999999997,-0.04478752613067627,
0.47249999999999998,-0.045412581413984299,
0.47499999999999998,-0.046254001557826996,
0.47749999999999998,-0.04798492044210434,
0.47999999999999998,-0.04860997200012207,
0.48249999999999998,-0.048970580101013184,
0.48499999999999999,-0.049090784043073654,
0.48749999999999999,-0.048634015023708344,
0.48999999999999999,-0.048201285302639008,
0.49249999999999999,-0.047672390937805176,
0.495,-0.04707137867808342,
0.4975,-0.045436620712280273,
0.5,-0.044282674789428711,
0.50249999999999995,-0.042816203087568283,
0.505,-0.040941040962934494,
0.50749999999999995,-0.036084853112697601,
0.51000000000000001,-0.033199988305568695,
0.51249999999999996,-0.030170878395438194,
0.51500000000000001,-0.027189850807189941,
0.51749999999999996,-0.02199709415435791,
0.52000000000000002,-0.020121932029724121,
0.52249999999999996,-0.018847784027457237,
0.52500000000000002,-0.01829485222697258,
0.52749999999999997,-0.018415054306387901,
0.53000000000000003,-0.020506581291556358,
0.53249999999999997,-0.022237500175833702,
0.53500000000000003,-0.02416074275970459,
0.53749999999999998,-0.027718743309378624,
0.54000000000000004,-0.028824608772993088,
0.54249999999999998,-0.029209256172180176,
0.54500000000000004,-0.028632283210754395,
0.54749999999999999,-0.024112662300467491,
0.55000000000000004,-0.020145973190665245,
0.55249999999999999,-0.015169581398367882,
0.55500000000000005,-0.009351770393550396,
0.5575,0.0035580000840127468,
0.56000000000000005,0.0099768247455358505,
0.5625,0.015890797600150108,
0.56499999999999995,0.020987391471862793,
0.5675,0.027670662850141525,
0.56999999999999995,0.028920769691467285,
0.57250000000000001,0.028656324371695518,
0.57499999999999996,0.026901364326477051,
0.57750000000000001,0.019304554909467697,
0.57999999999999996,0.013823310844600201,
0.58250000000000002,0.0075246891938149929,
0.58499999999999996,0.00062505406094714999,
0.58750000000000002,-0.0065630674362182617,
0.58999999999999997,-0.020698904991149902,
0.59250000000000003,-0.027165811508893967,
0.59499999999999997,-0.032959580421447754,
0.59750000000000003,-0.042022865265607834,
0.59999999999999998,-0.045220255851745605,
0.60250000000000004,-0.047576230019330978,
0.60499999999999998,-0.049186944961547852,
0.60750000000000004,-0.050533216446638107,
0.60999999999999999,-0.050413012504577637,
0.61250000000000004,-0.049763917922973633,
0.61499999999999999,-0.048537850379943848,
0.61750000000000005,-0.043873988091945648,
0.62,-0.040315985679626465,
0.62250000000000005,-0.036012731492519379,
0.625,-0.03122866153717041,
0.62749999999999995,-0.026372473686933517,
0.63,-0.019256472587585449,
0.63249999999999995,-0.018775662407279015,
0.63500000000000001,-0.021564364433288574,
0.63749999999999996,-0.039955377578735352,
0.64000000000000001,-0.056182742118835449,
0.64249999999999996,-0.076785489916801453,
0.64500000000000002,-0.1008019894361496,
0.64749999999999996,-0.15244106948375702,
0.65000000000000002,-0.17549595236778259,
0.65249999999999997,-0.19299745559692383,
0.65500000000000003,-0.20196458697319031,
0.65749999999999997,-0.19948840141296387,
0.66000000000000003,-0.15001296997070312,
0.66249999999999998,-0.099503800272941589,
0.66500000000000004,-0.030916135758161545,
0.66749999999999998,0.15592694282531738,
0.67000000000000004,0.26853284239768982,
0.67249999999999999,0.38787007331848145,
0.67500000000000004,0.50785642862319946,
0.67749999999999999,0.72186529636383057,
0.68000000000000005,0.80165588855743408,
0.6825,0.85492968559265137,
0.68500000000000005,0.8771672248840332,
0.6875,0.82134509086608887,
0.68999999999999995,0.74600201845169067,
0.6925,0.64500772953033447,
0.69499999999999995,0.52538198232650757,
0.69750000000000001,0.26406130194664001,
0.69999999999999996,0.13957938551902771,
0.70250000000000001,0.029209256172180176,
0.70499999999999996,-0.061760149896144867,
0.70750000000000002,-0.17551998794078827,
0.70999999999999996,-0.19905567169189453,
0.71250000000000002,-0.20398399233818054,
0.71499999999999997,-0.19465625286102295,
0.71750000000000003,-0.15220066905021667,
0.71999999999999997,-0.12772738933563232,
0.72250000000000003,-0.10539373010396957,
0.72499999999999998,-0.08702675998210907,
0.72750000000000004,-0.063995920121669769,
0.72999999999999998,-0.058274269104003906,
0.73250000000000004,-0.054908595979213715,
0.73499999999999999,-0.052696865051984787,
0.73750000000000004,-0.047912798821926117,
0.73999999999999999,-0.044354796409606934,
0.74250000000000005,-0.039955377578735352,
0.745,-0.035003028810024261,
0.74750000000000005,-0.025122364982962608,
0.75,-0.020963352173566818,
0.75249999999999995,-0.017693838104605675,
0.755,-0.015289783477783203,
0.75749999999999995,-0.012669364921748638,
0.76000000000000001,-0.011948148719966412,
0.76249999999999996,-0.011250972747802734,
0.76500000000000001,-0.010385513305664062,
0.76749999999999996,-0.0075727701187133789,
0.77000000000000002,-0.0055533647537231445,
0.77249999999999996,-0.0032214324455708265,
0.77500000000000002,-0.00067313516046851873,
0.77749999999999997,0.0045436620712280273,
0.78000000000000003,0.0069957971572875977,
0.78249999999999997,0.009255608543753624,
0.78500000000000003,0.011275013908743858,
0.78749999999999998,0.014760891906917095,
0.79000000000000004,0.016371607780456543,
0.79249999999999998,0.018030405044555664,
0.79500000000000004,0.019809406250715256,
0.79749999999999999,0.024256905540823936,
0.80000000000000004,0.026997527107596397,
0.80249999999999999,0.030098756775259972,
0.80500000000000005,0.033536553382873535,
0.8075,0.041133366525173187,
0.81000000000000005,0.045100055634975433,
0.8125,0.049042701721191406,
0.81499999999999995,0.05288919061422348,
0.8175,0.060101352632045746,
0.81999999999999995,0.063418947160243988,
0.82250000000000001,0.066592298448085785,
0.82499999999999996,0.069621406495571136,
0.82750000000000001,0.075511336326599121,
0.82999999999999996,0.078444287180900574,
0.83250000000000002,0.081425309181213379,
0.83499999999999996,0.084526538848876953,
0.83750000000000002,0.091185770928859711,
0.83999999999999997,0.094839930534362793,
0.84250000000000003,0.098806619644165039,
0.84499999999999997,0.10308583825826645,
0.84750000000000003,0.11294245719909668,
0.84999999999999998,0.11856794357299805,
0.85250000000000004,0.12472232431173325,
0.85499999999999998,0.13133347034454346,
0.85750000000000004,0.14587800204753876,
0.85999999999999999,0.15361905097961426,
0.86250000000000004,0.1615043580532074,
0.86499999999999999,0.16938965022563934,
0.86750000000000005,0.1845351904630661,
0.87,0.1915309876203537,
0.87250000000000005,0.19799789786338806,
0.875,0.20386378467082977,
0.87749999999999995,0.21376848220825195,
0.88,0.21792750060558319,
0.88249999999999995,0.22160570323467255,
0.88500000000000001,0.22497138381004333,
0.88749999999999996,0.23100554943084717,
0.89000000000000001,0.2337702214717865,
0.89249999999999996,0.23634254932403564,
0.89500000000000002,0.23867449164390564,
0.89749999999999996,0.24201612174510956,
0.90000000000000002,0.24266521632671356,
0.90249999999999997,0.242352694272995,
0.90500000000000003,0.24088621139526367,
0.90749999999999997,0.23393850028514862,
0.91000000000000003,0.22826492786407471,
0.91249999999999998,0.22107681632041931,
0.91500000000000004,0.21244625747203827,
0.91749999999999998,0.19133865833282471,
0.92000000000000004,0.17915010452270508,
0.92249999999999999,0.16619226336479187,
0.92500000000000004,0.15263339877128601,
0.92749999999999999,0.12465020269155502,
0.93000000000000005,0.1106826514005661,
0.9325,0.097003579139709473,
0.93500000000000005,0.08378128707408905,
0.9375,0.059332054108381271,
0.93999999999999995,0.04832148551940918,
0.9425,0.038200419396162033,
0.94499999999999995,0.028944810852408409,
0.94750000000000001,0.013005932793021202,
0.94999999999999996,0.0062024593353271484,
0.95250000000000001,9.6162162662949413e-05,
0.95499999999999996,-0.0054331622086465359,
0.95750000000000002,-0.01492917537689209,
0.95999999999999996,-0.018992027267813683,
0.96250000000000002,-0.022622149437665939,
0.96499999999999997,-0.025819540023803711,
0.96750000000000003,-0.03094017505645752,
0.96999999999999997,-0.032815337181091309,
0.97250000000000003,-0.034257769584655762,
0.97499999999999998,-0.035219393670558929,
0.97750000000000004,-0.035964649170637131,
0.97999999999999998,-0.035868488252162933,
0.98250000000000004,-0.03555595874786377,
0.98499999999999999,-0.035171311348676682,
0.98750000000000004,-0.034522216767072678,
0.98999999999999999,-0.034450095146894455,
0.99250000000000005,-0.034618377685546875,
0.995,-0.035003028810024261,
0.99750000000000005,-0.036397378891706467,
1,-0.037214756011962891,85.714286804199219
1.0024999999999999,-0.03800809383392334,
1.0049999999999999,-0.038633149117231369,
1.0075000000000001,-0.03904183954000473,
1.01,-0.038729310035705566,
1.0125,-0.03800809383392334,
1.0149999999999999,-0.03692626953125,
1.0175000000000001,-0.033801000565290451,
1.02,-0.031901799142360687,
1.0225,-0.029906433075666428,
1.0249999999999999,-0.027887027710676193,
1.0275000000000001,-0.024304986000061035,
1.03,-0.022934675216674805,
1.0325,-0.021973054856061935,
1.0349999999999999,-0.021516283974051476,
1.0375000000000001,-0.022189419716596603,
1.04,-0.023295283317565918,
1.0425,-0.024833878502249718,
1.0449999999999999,-0.026660960167646408,
1.0475000000000001,-0.030483406037092209,
1.05,-0.032118164002895355,
1.0525,-0.033320188522338867,
1.0549999999999999,-0.033945243805646896,
1.0575000000000001,-0.03322402760386467,
1.0600000000000001,-0.03197392076253891,
1.0625,-0.030243000015616417,
1.0649999999999999,-0.028247635811567307,
1.0674999999999999,-0.024232864379882812,
1.0700000000000001,-0.022622149437665939,
1.0725,-0.021420121192932129,
1.075,-0.020698904991149902,
1.0774999999999999,-0.020530622452497482,
1.0800000000000001,-0.020867189392447472,
1.0825,-0.021275877952575684,
1.085,-0.021588405594229698,
1.0874999999999999,-0.021420121192932129,
1.0900000000000001,-0.020819108933210373,
1.0925,-0.019881527870893478,
1.095,-0.018703540787100792,
1.0974999999999999,-0.01601099967956543,
1.1000000000000001,-0.014760891906917095,
1.1025,-0.013703107833862305,
1.105,-0.012909770011901855,
1.1074999999999999,-0.012188553810119629,
1.1100000000000001,-0.01214047335088253,
1.1125,-0.012260675430297852,
1.115,-0.012380878441035748,
1.1174999999999999,-0.012428959831595421,
1.1200000000000001,-0.012212594971060753,
1.1225000000000001,-0.011827945709228516,
1.125,-0.011299054138362408,
1.1274999999999999,-0.0099047031253576279,
1.1299999999999999,-0.0091834869235754013,
1.1325000000000001,-0.0084863109514117241,
1.135,-0.0078612565994262695,
1.1375,-0.0068996353074908257,
1.1399999999999999,-0.0065149865113198757,
1.1425000000000001,-0.0061784191057085991,
1.145,-0.0058658919297158718,
1.1475,-0.0051927566528320312,
1.1499999999999999,-0.004832148551940918,
1.1525000000000001,-0.0044715404510498047,
1.155,-0.0041590137407183647,
1.1575,-0.0037262837868183851,
1.1599999999999999,-0.0036060810089111328,
1.1625000000000001,-0.0035820405464619398,
1.165,-0.0035820405464619398,
1.1675,-0.0034858784638345242,
1.1699999999999999,-0.0032935540657490492,
1.1725000000000001,-0.0029089055024087429,
1.175,-0.002307891845703125,
1.1775,-0.00060101354029029608,
1.1799999999999999,0.00043272972106933594,
1.1825000000000001,0.0014183919411152601,
1.1850000000000001,0.002283851383253932,
1.1875,0.0030531487427651882,
1.1899999999999999,0.0028127431869506836,
1.1924999999999999,0.0021155676804482937,
1.1950000000000001,0.001033743261359632,
1.1975,-0.0018030405044555664,
1.2,-0.0031733512878417969,
1.2024999999999999,-0.0042070946656167507,
1.2050000000000001,-0.0046879053115844727,
1.2075,-0.0034618377685546875,
1.21,-0.0016587972640991211,
1.2124999999999999,0.00081737840082496405,
1.2150000000000001,0.0038224458694458008,
1.2175,0.010433594696223736,
1.22,0.013486742973327637,
1.2224999999999999,0.016107162460684776,
1.2250000000000001,0.018102526664733887,
1.2275,0.020049810409545898,
1.23,0.020073851570487022,
1.2324999999999999,0.019641121849417686,
1.2350000000000001,0.018895864486694336,
1.2375,0.017068784683942795,
1.24,0.016227364540100098,
1.2424999999999999,0.015530189499258995,
1.2450000000000001,0.015025338158011436,
1.2475000000000001,0.014784932136535645,
1.25,0.015121500007808208,
1.2524999999999999,0.015938878059387207,
1.2549999999999999,0.017309188842773438,
1.2575000000000001,0.022213459014892578,
1.26,0.025915702804923058,
1.2625,0.030459364876151085,
1.2649999999999999,0.035748284310102463,
1.2675000000000001,0.047624312341213226,
1.27,0.053538285195827484,
1.2725,0.058899324387311935,
1.2749999999999999,0.063274703919887543,
1.2775000000000001,0.067794322967529297,
1.28,0.067433714866638184,
1.2825,0.065270066261291504,
1.2849999999999999,0.06137549877166748,
1.2875000000000001,0.049259066581726074,
1.29,0.041782461106777191,
1.2925,0.033873122185468674,
1.2949999999999999,0.02598782442510128,
1.2975000000000001,0.011900067329406738,
1.3,0.0062986216507852077,
1.3025,0.0018992027034983039,
1.3049999999999999,-0.0012260675430297852,
1.3075000000000001,-0.0040628514252603054,
1.3100000000000001,-0.0041830539703369141,
1.3125,-0.0038224458694458008,
1.3149999999999999,-0.0032935540657490492,
1.3174999999999999,-0.0025723378639668226,
1.3200000000000001,-0.0025723378639668226,
1.3225,-0.0027406215667724609,
1.325,-0.0028608243446797132,
1.3274999999999999,-0.0019713244400918484,
1.3300000000000001,-0.00055293244076892734,
1.3325,0.0015385946026071906,
1.335,0.0040388107299804688,
1.3374999999999999,0.0078852977603673935,
1.3400000000000001,0.0075246891938149929,
1.3425,0.00430325698107481,
1.345,-0.0026925406418740749,
1.3474999999999999,-0.03014683723449707,
1.3500000000000001,-0.050581298768520355,
1.3525,-0.074429512023925781,
1.355,-0.10022501647472382,
1.3574999999999999,-0.14857053756713867,
1.3600000000000001,-0.16566336154937744,
1.3625,-0.17400543391704559,
1.365,-0.1706397533416748,
1.3674999999999999,-0.11880835145711899,
1.3700000000000001,-0.067000985145568848,
1.3725000000000001,0.0027887027245014906,
1.375,0.089599095284938812,
1.3774999999999999,0.30384838581085205,
1.3799999999999999,0.42268079519271851,
1.3825000000000001,0.54153722524642944,
1.385,0.65359020233154297,
1.3875,0.82896590232849121,
1.3899999999999999,0.87959527969360352,
1.3925000000000001,0.89921236038208008,
1.395,0.88560545444488525,
1.3975,0.76206111907958984,
1.3999999999999999,0.65998494625091553,
1.4025000000000001,0.53973418474197388,
1.405,0.40955466032028198,
1.4075,0.15378734469413757,
1.4099999999999999,0.04353741928935051,
1.4125000000000001,-0.047335825860500336,
1.415,-0.11573116481304169,
1.4175,-0.18417458236217499,
1.4199999999999999,-0.18864612281322479,
1.4225000000000001,-0.17852506041526794,
1.425,-0.15857140719890594,
1.4275,-0.10717272758483887,
1.4299999999999999,-0.082987949252128601,
1.4325000000000001,-0.062841974198818207,
1.4350000000000001,-0.047696433961391449,
1.4375,-0.031613312661647797,
1.4399999999999999,-0.028800567612051964,
1.4424999999999999,-0.027790864929556847,
1.4450000000000001,-0.027478337287902832,
1.4475,-0.025482973083853722,
1.45,-0.022958716377615929,
1.4524999999999999,-0.01937667652964592,
1.4550000000000001,-0.015001296997070312,
1.4575,-0.0051446757279336452,
1.46,-0.00036060810089111328,
1.4624999999999999,0.0039426488801836967,
1.4650000000000001,0.0076689324341714382,
1.4675,0.013246337883174419,
1.47,0.015265743248164654,
1.4724999999999999,0.016972621902823448,
1.4750000000000001,0.018535256385803223,
1.4775,0.02182881161570549,
1.48,0.023776095360517502,
1.4824999999999999,0.025963783264160156,
1.4850000000000001,0.028367837890982628,
1.4875,0.033440392464399338,
1.49,0.03584444522857666,
1.4924999999999999,0.03796001523733139,
1.4950000000000001,0.039690934121608734,
1.4975000000000001,0.041950743645429611,
1.5,0.04262387752532959,
1.5024999999999999,0.043200850486755371,
1.5049999999999999,0.043873988091945648,
1.5075000000000001,0.046326123178005219,
1.51,0.048369567841291428,
1.5125,0.051086150109767914,
1.5149999999999999,0.054379701614379883,
1.5175000000000001,0.06216883659362793,
1.52,0.066255733370780945,
1.5225,0.070198379456996918,
1.5249999999999999,0.0738525390625,
1.5275000000000001,0.079910755157470703,
1.53,0.082386933267116547,
1.5325,0.084646746516227722,
1.5349999999999999,0.086834430694580078,
1.5375000000000001,0.091738700866699219,
1.54,0.094695687294006348,
1.5425,0.098037324845790863,
1.5449999999999999,0.10176360607147217,
1.5475000000000001,0.11008163541555405,
1.55,0.1145050972700119,
1.5525,0.11900067329406738,
1.5549999999999999,0.12356837838888168,
1.5575000000000001,0.13325671851634979,
1.5600000000000001,0.13856968283653259,
1.5625,0.14438748359680176,
1.5649999999999999,0.1507822722196579,
1.5674999999999999,0.16537487506866455,
1.5700000000000001,0.17335633933544159,
1.5725,0.18153011798858643,
1.575,0.18958370387554169,
1.5774999999999999,0.20422439277172089,
1.5800000000000001,0.21030664443969727,
1.5825,0.2153070867061615,
1.585,0.2192256897687912,
1.5874999999999999,0.22417804598808289,
1.5900000000000001,0.22562047839164734,
1.5925,0.22665421664714813,
1.595,0.22756776213645935,
1.5974999999999999,0.22973141074180603,
1.6000000000000001,0.23112575709819794,
1.6025,0.23266434669494629,
1.605,0.23422698676586151,
1.6074999999999999,0.23641467094421387,
1.6100000000000001,0.23648679256439209,
1.6125,0.23550114035606384,
1.615,0.23319324851036072,
1.6174999999999999,0.22393763065338135,
1.6200000000000001,0.2167975902557373,
1.6225000000000001,0.20797471702098846,
1.625,0.19756516814231873,
1.6274999999999999,0.17277936637401581,
1.6299999999999999,0.15888392925262451,
1.6325000000000001,0.14441153407096863,
1.635,0.12965063750743866,
1.6375,0.10063370317220688,
1.6399999999999999,0.086906552314758301,
1.6425000000000001,0.074020825326442719,
1.645,0.062096714973449707,
1.6475,0.041397809982299805,
1.6499999999999999,0.032574933022260666,
1.6525000000000001,0.024665594100952148,
1.655,0.017573636025190353,
1.6575,0.0052648782730102539,
1.6599999999999999,-0.00014424324035644531,
1.6625000000000001,-0.0052167973481118679,
1.665,-0.0099768247455358505,
1.6675,-0.018751621246337891,
1.6699999999999999,-0.022790431976318359,
1.6725000000000001,-0.026588838547468185,
1.675,-0.03014683723449707,
1.6775,-0.036493539810180664,
1.6799999999999999,-0.039258204400539398,
1.6825000000000001,-0.041710339486598969,
1.6850000000000001,-0.043849945068359375,
1.6875,-0.046999257057905197,
1.6899999999999999,-0.04798492044210434,
1.6924999999999999,-0.048537850379943848,
1.6950000000000001,-0.048706136643886566,
1.6975,-0.048081081360578537,
1.7,-0.047456026077270508,
1.7024999999999999,-0.046734809875488281,
1.7050000000000001,-0.046037636697292328,
1.7075,-0.045124094933271408,
1.71,-0.045051973313093185,
1.7124999999999999,-0.045268338173627853,
1.7150000000000001,-0.045773189514875412,
1.7175,-0.047552190721035004,
1.72,-0.048658054322004318,
1.7224999999999999,-0.049836039543151855,
1.7250000000000001,-0.050965946167707443,
1.7275,-0.05276898667216301,
1.73,-0.053321920335292816,
1.7324999999999999,-0.053586363792419434,
1.7350000000000001,-0.053514242172241211,
1.7375,-0.052504539489746094,
1.74,-0.051639080047607422,
1.7424999999999999,-0.050677459686994553,
1.7450000000000001,-0.04969179630279541,
1.7475000000000001,-0.048105120658874512,
1.75,-0.047672390937805176,
1.7524999999999999,-0.047504108399152756,
1.7549999999999999,-0.047600269317626953,
1.7575000000000001,-0.048297446221113205,
1.76,-0.048706136643886566,
1.7625,-0.048994623124599457,
1.7649999999999999,-0.049090784043073654,
1.7675000000000001,-0.04860997200012207,
1.77,-0.048032999038696289,
1.7725,-0.047335825860500336,
1.7749999999999999,-0.046614609658718109,
1.7775000000000001,-0.045364499092102051,
1.78,-0.044955812394618988,
1.7825,-0.044667325913906097,
1.7849999999999999,-0.044450961053371429,
1.7875000000000001,-0.043970149010419846,
1.79,-0.043561458587646484,
1.7925,-0.042984485626220703,
1.7949999999999999,-0.042191147804260254,
1.7975000000000001,-0.040195785462856293,
1.8,-0.03908991813659668,
1.8025,-0.038032136857509613,
1.8049999999999999,-0.037046473473310471,
1.8075000000000001,-0.03550788015127182,
1.8100000000000001,-0.034930907189846039,
1.8125,-0.034450095146894455,
1.8149999999999999,-0.033993326127529144,
1.8174999999999999,-0.033079784363508224,
1.8200000000000001,-0.032598972320556641,
1.8225,-0.032118164002895355,
1.825,-0.031685434281826019,
1.8274999999999999,-0.031084418296813965,
1.8300000000000001,-0.03094017505645752,
1.8325,-0.030844014137983322,
1.835,-0.030771892517805099,
1.8374999999999999,-0.03031512163579464,
1.8400000000000001,-0.029762189835309982,
1.8425,-0.028920769691467285,
1.845,-0.027814906090497971,
1.8474999999999999,-0.025026202201843262,
1.8500000000000001,-0.023631852120161057,
1.8525,-0.02245386503636837,
1.855,-0.021636486053466797,
1.8574999999999999,-0.021492242813110352,
1.8600000000000001,-0.022237500175833702,
1.8625,-0.023391446098685265,
1.865,-0.024857919663190842,
1.8674999999999999,-0.027814906090497971,
1.8700000000000001,-0.028872689232230186,
1.8725000000000001,-0.029473703354597092,
1.875,-0.029497742652893066,
1.8774999999999999,-0.027887027710676193,
1.8799999999999999,-0.026492675766348839,
1.8825000000000001,-0.02490600012242794,
1.885,-0.023367404937744141,
1.8875,-0.021179717034101486,
1.8899999999999999,-0.020722946152091026,
1.8925000000000001,-0.02074698731303215,
1.895,-0.021179717034101486,
1.8975,-0.022598108276724815,
1.8999999999999999,-0.023223161697387695,
1.9025000000000001,-0.023511648178100586,
1.905,-0.023319324478507042,
1.9075,-0.021299919113516808,
1.9099999999999999,-0.019520919770002365,
1.9125000000000001,-0.01738131046295166,
1.915,-0.015121500007808208,
1.9175,-0.01105864904820919,
1.9199999999999999,-0.0097123784944415092,
1.9225000000000001,-0.009015202522277832,
1.925,-0.009039243683218956,
1.9275,-0.011010567657649517,
1.9299999999999999,-0.012597243301570415,
1.9325000000000001,-0.014256040565669537,
1.9350000000000001,-0.01567443273961544,
1.9375,-0.016539892181754112,
1.9399999999999999,-0.015506148338317871,
1.9424999999999999,-0.013318459503352642,
1.9450000000000001,-0.0100008649751544,
1.9475,-0.00048081082059070468,
1.95,0.0051927566528320312,
1.9524999999999999,0.010986527428030968,
1.9550000000000001,0.016539892181754112,
1.9575,0.025603175163269043,
1.96,0.028536122292280197,
1.9624999999999999,0.030218958854675293,
1.9650000000000001,0.03060360811650753,
1.9675,0.027598541229963303,
1.97,0.024497311562299728,
1.9724999999999999,0.020602744072675705,
1.9750000000000001,0.016083121299743652,
1.9775,0.0060341758653521538,
1.98,0.00081737840082496405,
1.9824999999999999,-0.0043753786012530327,
1.9850000000000001,-0.0094238920137286186,
1.9875,-0.018943946808576584,
1.99,-0.023295283317565918,
1.9924999999999999,-0.027358135208487511,
1.9950000000000001,-0.031108459457755089,
1.9975000000000001,-0.037407081574201584,
2,-0.039883255958557129,85.020240783691406
2.0024999999999999,-0.041854582726955414,
2.0049999999999999,-0.043200850486755371,
2.0074999999999998,-0.0438259057700634,
2.0099999999999998,-0.04291236400604248,
2.0125000000000002,-0.041109323501586914,
2.0150000000000001,-0.038440823554992676,
2.0175000000000001,-0.031084418296813965,
2.02,-0.027045607566833496,
2.0225,-0.023511648178100586,
2.0249999999999999,-0.021155675873160362,
2.0274999999999999,-0.023439526557922363,
2.0299999999999998,-0.029641985893249512,
2.0325000000000002,-0.040003459900617599,
2.0350000000000001,-0.054740309715270996,
2.0375000000000001,-0.095705389976501465,
2.04,-0.11981805413961411,
2.0425,-0.14395475387573242,
2.0449999999999999,-0.16580760478973389,
2.0474999999999999,-0.19150695204734802,
2.0499999999999998,-0.18955966830253601,
2.0525000000000002,-0.17412564158439636,
2.0550000000000002,-0.14306525886058807,
2.0575000000000001,-0.029425621032714844,
2.0600000000000001,0.05288919061422348,
2.0625,0.14986872673034668,
2.0649999999999999,0.25812327861785889,
2.0674999999999999,0.4884316623210907,
2.0699999999999998,0.59800845384597778,
2.0724999999999998,0.69467544555664062,
2.0750000000000002,0.77174943685531616,
2.0775000000000001,0.84521734714508057,
2.0800000000000001,0.8348318338394165,
2.0825,0.79215985536575317,
2.085,0.71962952613830566,
2.0874999999999999,0.50559663772583008,
2.0899999999999999,0.37863850593566895,
2.0924999999999998,0.24946868419647217,
2.0950000000000002,0.12626092135906219,
2.0975000000000001,-0.075415179133415222,
2.1000000000000001,-0.14513275027275085,
2.1025,-0.19189159572124481,
2.105,-0.21667739748954773,
2.1074999999999999,-0.21280686557292938,
2.1099999999999999,-0.19282917678356171,
2.1124999999999998,-0.16705772280693054,
2.1150000000000002,-0.13967554271221161,
2.1175000000000002,-0.092267595231533051,
2.1200000000000001,-0.075583457946777344,
2.1225000000000001,-0.064092084765434265,
2.125,-0.057144366204738617,
2.1274999999999999,-0.052360296249389648,
2.1299999999999999,-0.052071809768676758,
2.1324999999999998,-0.051783323287963867,
2.1349999999999998,-0.050917863845825195,
2.1375000000000002,-0.046494405716657639,
2.1400000000000001,-0.043176811188459396,
2.1425000000000001,-0.039474569261074066,
2.145,-0.035772323608398438,
2.1475,-0.029161175712943077,
2.1499999999999999,-0.026468634605407715,
2.1524999999999999,-0.024136703461408615,
2.1549999999999998,-0.022093256935477257,
2.1575000000000002,-0.018270811066031456,
2.1600000000000001,-0.01629948616027832,
2.1625000000000001,-0.014232000336050987,
2.165,-0.012116432189941406,
2.1675,-0.0077891349792480469,
2.1699999999999999,-0.0056976079940795898,
2.1724999999999999,-0.0036782026290893555,
2.1749999999999998,-0.0017309188842773438,
2.1775000000000002,0.0019953649025410414,
2.1800000000000002,0.0038945674896240234,
2.1825000000000001,0.0058658919297158718,
2.1850000000000001,0.0079333782196044922,
2.1875,0.012332797050476074,
2.1899999999999999,0.01461664866656065,
2.1924999999999999,0.016924541443586349,
2.1949999999999998,0.019208392128348351,
2.1974999999999998,0.023631852120161057,
2.2000000000000002,0.025795500725507736,
2.2025000000000001,0.027959149330854416,
2.2050000000000001,0.030170878395438194,
2.2075,0.034810703247785568,
2.21,0.037310920655727386,
2.2124999999999999,0.039955377578735352,
2.2149999999999999,0.042768120765686035,
2.2174999999999998,0.048802297562360764,
2.2200000000000002,0.052023731172084808,
2.2225000000000001,0.055341325700283051,
2.2250000000000001,0.058779120445251465,
2.2275,0.06599128246307373,
2.23,0.069789692759513855,
2.2324999999999999,0.073780417442321777,
2.2349999999999999,0.077987514436244965,
2.2374999999999998,0.087267160415649414,
2.2400000000000002,0.092387795448303223,
2.2425000000000002,0.097893081605434418,
2.2450000000000001,0.10373493283987045,
2.2475000000000001,0.11630813777446747,
2.25,0.12289524078369141,
2.2524999999999999,0.12960255146026611,
2.2549999999999999,0.13630986213684082,
2.2574999999999998,0.14941196143627167,
2.2599999999999998,0.15566250681877136,
2.2625000000000002,0.1616966724395752,
2.2650000000000001,0.16746640205383301,
2.2675000000000001,0.17821252346038818,
2.27,0.18316487967967987,
2.2725,0.1878046989440918,
2.2749999999999999,0.19213199615478516,
2.2774999999999999,0.19953648746013641,
2.2799999999999998,0.20254155993461609,
2.2825000000000002,0.20499369502067566,
2.2850000000000001,0.20684480667114258,
2.2875000000000001,0.20857572555541992,
2.29,0.20838341116905212,
2.2925,0.20742177963256836,
2.2949999999999999,0.20564278960227966,
2.2974999999999999,0.19932012259960175,
2.2999999999999998,0.19463221728801727,
2.3025000000000002,0.18879036605358124,
2.3050000000000002,0.18174648284912109,
2.3075000000000001,0.16390840709209442,
2.3100000000000001,0.15318632125854492,
2.3125,0.14140646159648895,
2.3149999999999999,0.12873709201812744,
2.3174999999999999,0.10171552747488022,
2.3199999999999998,0.087892219424247742,
2.3224999999999998,0.074213147163391113,
2.3250000000000002,0.060966812074184418,
2.3275000000000001,0.036517582833766937,
2.3300000000000001,0.025579135864973068,
2.3325,0.015578269958496094,
2.335,0.0065149865113198757,
2.3374999999999999,-0.0091594457626342773,
2.3399999999999999,-0.015962919220328331,
2.3424999999999998,-0.022285580635070801,
2.3450000000000002,-0.028199553489685059,
2.3475000000000001,-0.03921012207865715,
2.3500000000000001,-0.044402878731489182,
2.3525,-0.04940330982208252,
2.355,-0.054187379777431488,
2.3574999999999999,-0.062793895602226257,
2.3599999999999999,-0.066520176827907562,
2.3624999999999998,-0.069765649735927582,
2.3650000000000002,-0.072530314326286316,
2.3675000000000002,-0.076665282249450684,
2.3700000000000001,-0.07808367908000946,
2.3725000000000001,-0.0791655033826828,
2.375,-0.079934798181056976,
2.3774999999999999,-0.080776214599609375,
2.3799999999999999,-0.080944500863552094,
2.3824999999999998,-0.080968543887138367,
2.3849999999999998,-0.080896422266960144,
2.3875000000000002,-0.080535814166069031,
2.3900000000000001,-0.080319449305534363,
2.3925000000000001,-0.080151163041591644,
2.395,-0.080079041421413422,
2.3975,-0.080175206065177917,
2.3999999999999999,-0.080343484878540039,
2.4024999999999999,-0.080535814166069031,
2.4049999999999998,-0.080728136003017426,
2.4075000000000002,-0.080824300646781921,
2.4100000000000001,-0.080704092979431152,
2.4125000000000001,-0.080463692545890808,
2.415,-0.080151163041591644,
2.4175,-0.079574190080165863,
2.4199999999999999,-0.079478025436401367,
2.4224999999999999,-0.07955014705657959,
2.4249999999999998,-0.07983863353729248,
2.4275000000000002,-0.080992579460144043,
2.4300000000000002,-0.081737838685512543,
2.4325000000000001,-0.082483097910881042,
2.4350000000000001,-0.083180271089076996,
2.4375,-0.084141895174980164,
2.4399999999999999,-0.084358260035514832,
2.4424999999999999,-0.08445441722869873,
2.4449999999999998,-0.084430381655693054,
2.4474999999999998,-0.084334217011928558,
2.4500000000000002,-0.084358260035514832,
2.4525000000000001,-0.084430381655693054,
2.4550000000000001,-0.084550581872463226,
2.4575,-0.084790989756584167,
2.46,-0.084790989756584167,
2.4624999999999999,-0.084646746516227722,
2.4649999999999999,-0.084286138415336609,
2.4674999999999998,-0.082939863204956055,
2.4700000000000002,-0.081954203546047211,
2.4725000000000001,-0.080800257623195648,
2.4750000000000001,-0.07955014705657959,
2.4775,-0.076905690133571625,
2.48,-0.07563154399394989,
2.4824999999999999,-0.074405476450920105,
2.4849999999999999,-0.073275566101074219,
2.4874999999999998,-0.071328282356262207,
2.4900000000000002,-0.070510908961296082,
2.4925000000000002,-0.069789692759513855,
2.4950000000000001,-0.069116555154323578,
2.4975000000000001,-0.06781836599111557,
2.5,-0.067121192812919617,
2.5024999999999999,-0.06639997661113739,
2.5049999999999999,-0.065630674362182617,
2.5074999999999998,-0.063995920121669769,
2.5099999999999998,-0.063178539276123047,
2.5125000000000002,-0.062433283776044846,
2.5150000000000001,-0.061760149896144867,
2.5175000000000001,-0.060726404190063477,
2.52,-0.060317717492580414,
2.5225,-0.059981148689985275,
2.5249999999999999,-0.059644579887390137,
2.5274999999999999,-0.058875285089015961,
2.5299999999999998,-0.058418512344360352,
2.5325000000000002,-0.057913661003112793,
2.5350000000000001,-0.05738477036356926,
2.5375000000000001,-0.056543350219726562,
2.54,-0.056326985359191895,
2.5425,-0.056278906762599945,
2.5449999999999999,-0.056375067681074142,
2.5474999999999999,-0.056952040642499924,
2.5499999999999998,-0.057264566421508789,
2.5525000000000002,-0.057529013603925705,
2.5550000000000002,-0.05767325684428215,
2.5575000000000001,-0.057529013603925705,
2.5600000000000001,-0.057264566421508789,
2.5625,-0.056976079940795898,
2.5649999999999999,-0.056711636483669281,
2.5674999999999999,-0.056567393243312836,
2.5699999999999998,-0.05675971508026123,
2.5724999999999998,-0.057144366204738617,
2.5750000000000002,-0.05767325684428215,
2.5775000000000001,-0.058731041848659515,
2.5800000000000001,-0.059067606925964355,
2.5825,-0.059187810868024826,
2.585,-0.058995485305786133,
2.5874999999999999,-0.057721339166164398,
2.5899999999999999,-0.056735675781965256,
2.5924999999999998,-0.055629812180995941,
2.5950000000000002,-0.054523944854736328,
2.5975000000000001,-0.052648782730102539,
2.6000000000000001,-0.052047770470380783,
2.6025,-0.051711201667785645,
2.605,-0.051711201667785645,
2.6074999999999999,-0.052624743431806564,
2.6099999999999999,-0.053466163575649261,
2.6124999999999998,-0.054451823234558105,
2.6150000000000002,-0.055557690560817719,
2.6175000000000002,-0.057529013603925705,
2.6200000000000001,-0.058178108185529709,
2.6225000000000001,-0.058442555367946625,
2.625,-0.058202147483825684,
2.6274999999999999,-0.055990420281887054,
2.6299999999999999,-0.05401909351348877,
2.6324999999999998,-0.051591001451015472,
2.6349999999999998,-0.048802297562360764,
2.6375000000000002,-0.04291236400604248,
2.6400000000000001,-0.040219824761152267,
2.6425000000000001,-0.03796001523733139,
2.645,-0.036253135651350021,
2.6475,-0.034858785569667816,
2.6499999999999999,-0.035195350646972656,
2.6524999999999999,-0.036108892410993576,
2.6549999999999998,-0.037479203194379807,
2.6575000000000002,-0.040820837020874023,
2.6600000000000001,-0.042383473366498947,
2.6625000000000001,-0.04353741928935051,
2.665,-0.044138431549072266,
2.6675,-0.042984485626220703,
2.6699999999999999,-0.040989123284816742,
2.6724999999999999,-0.037984054535627365,
2.6749999999999998,-0.034017365425825119,
2.6775000000000002,-0.02353568933904171,
2.6800000000000002,-0.017453432083129883,
2.6825000000000001,-0.011202892288565636,
2.6850000000000001,-0.0051206350326538086,
2.6875,0.0049763917922973633,
2.6899999999999999,0.0082699460908770561,
2.6924999999999999,0.0099527835845947266,
2.6949999999999998,0.0099287433549761772,
2.6974999999999998,0.004567702766507864,
2.7000000000000002,-0.00043272972106933594,
2.7025000000000001,-0.0065390272065997124,
2.7050000000000001,-0.013390581123530865,
2.7075,-0.027598541229963303,
2.71,-0.034161608666181564,
2.7124999999999999,-0.040027499198913574,
2.7149999999999999,-0.049186944961547852,
2.7174999999999998,-0.052528582513332367,
2.7200000000000002,-0.055245161056518555,
2.7225000000000001,-0.05750497430562973,
2.7250000000000001,-0.061303377151489258,
2.7275,-0.063058339059352875,
2.73,-0.064717136323451996,
2.7324999999999999,-0.066183611750602722,
2.7349999999999999,-0.067265436053276062,
2.7374999999999998,-0.067529879510402679,
2.7400000000000002,-0.066375933587551117,
2.7425000000000002,-0.06428440660238266,
2.7450000000000001,-0.061423581093549728,
2.7475000000000001,-0.054860513657331467,
2.75,-0.052384339272975922,
2.7524999999999999,-0.05151887983083725,
2.7549999999999999,-0.058009825646877289,
2.7574999999999998,-0.066832706332206726,
2.7599999999999998,-0.079910755157470703,
2.7625000000000002,-0.097171865403652191,
2.7650000000000001,-0.1416468620300293,
2.7675000000000001,-0.16621629893779755,
2.77,-0.18977603316307068,
2.7725,-0.2098979651927948,
2.7749999999999999,-0.22386550903320312,
2.7774999999999999,-0.222206711769104,
2.7799999999999998,-0.2014116495847702,
2.7825000000000002,-0.16455750167369843,
2.7850000000000001,-0.039017796516418457,
2.7875000000000001,0.048850379884243011,
2.79,0.1507822722196579,
2.7925,0.26312372088432312,
2.7949999999999999,0.38087427616119385,
2.7974999999999999,0.60755252838134766,
2.7999999999999998,0.70263290405273438,
2.8025000000000002,0.77653348445892334,
2.8050000000000002,0.83961588144302368,
2.8075000000000001,0.8227154016494751,
2.8100000000000001,0.77333611249923706,
2.8125,0.69441103935241699,
2.8149999999999999,0.47068974375724792,
2.8174999999999999,0.34123143553733826,
2.8199999999999998,0.21138846874237061,
2.8224999999999998,0.089262530207633972,
2.8250000000000002,-0.10609090328216553,
2.8275000000000001,-0.1714811772108078,
2.8300000000000001,-0.21384060382843018,
2.8325,-0.23470780253410339,
2.835,-0.22590896487236023,
2.8374999999999999,-0.20528218150138855,
2.8399999999999999,-0.18003961443901062,
2.8424999999999998,-0.15419602394104004,
2.8450000000000002,-0.111620232462883,
2.8475000000000001,-0.097580552101135254,
2.8500000000000001,-0.088493227958679199,
2.8525,-0.083588957786560059,
2.855,-0.081377230584621429,
2.8574999999999999,-0.08166571706533432,
2.8599999999999999,-0.081641674041748047,
2.8624999999999998,-0.080704092979431152,
2.8650000000000002,-0.07563154399394989,
2.8675000000000002,-0.071736976504325867,
2.8700000000000001,-0.067313514649868011,
2.8725000000000001,-0.062673687934875488,
2.875,-0.053562324494123459,
2.8774999999999999,-0.04935523122549057,
2.8799999999999999,-0.045460663735866547,
2.8824999999999998,-0.041902661323547363,
2.8849999999999998,-0.035772323608398438,
2.8875000000000002,-0.03322402760386467,
2.8900000000000001,-0.031108459457755089,
2.8925000000000001,-0.029377540573477745,
2.895,-0.027093689888715744,
2.8975,-0.026372473686933517,
2.8999999999999999,-0.025747418403625488,
2.9024999999999999,-0.02507428452372551,
2.9049999999999998,-0.022886594757437706,
2.9075000000000002,-0.021131634712219238,
2.9100000000000001,-0.018871825188398361,
2.9125000000000001,-0.016107162460684776,
2.915,-0.0095200538635253906,
2.9175,-0.0060582160949707031,
2.9199999999999999,-0.0027165811043232679,
2.9224999999999999,0.000312527030473575,
2.9249999999999998,0.0049523515626788139,
2.9275000000000002,0.0064909458160400391,
2.9300000000000002,0.0075968108139932156,
2.9325000000000001,0.0084141893312335014,
2.9350000000000001,0.0099527835845947266,
2.9375,0.011106729507446289,
2.9399999999999999,0.01276552677154541,
2.9424999999999999,0.015049378387629986,
2.9449999999999998,0.021660527214407921,
2.9474999999999998,0.025843581184744835,
2.9500000000000002,0.030459364876151085,
2.9525000000000001,0.035315554589033127,
2.9550000000000001,0.045148134231567383,
2.9575,0.049860082566738129,
2.96,0.054355662316083908,
2.9624999999999999,0.05863487720489502,
2.9649999999999999,0.066832706332206726,
2.9674999999999998,0.070919595658779144,
2.9700000000000002,0.075198814272880554,
2.9725000000000001,0.079742476344108582,
2.9750000000000001,0.090007781982421875,
2.9775,0.09584963321685791,
2.98,0.10214825719594955,
2.9824999999999999,0.10890364646911621,
2.9849999999999999,0.12361645698547363,
2.9874999999999998,0.131381556391716,
2.9900000000000002,0.13929089903831482,
2.9925000000000002,0.14720022678375244,
2.9950000000000001,0.16241788864135742,
2.9975000000000001,0.16941368579864502,
3,0.17585656046867371,85.10638427734375
3.0024999999999999,0.18160223960876465,
3.0049999999999999,0.19090592861175537,
3.0074999999999998,0.1944158524274826,
3.0099999999999998,0.19720456004142761,
3.0125000000000002,0.19932012259960175,
3.0150000000000001,0.20155589282512665,
3.0175000000000001,0.20165205001831055,
3.02,0.20102700591087341,
3.0225,0.19956052303314209,
3.0249999999999999,0.1937667578458786,
3.0274999999999999,0.18927118182182312,
3.0299999999999998,0.18362164497375488,
3.0325000000000002,0.17686626315116882,
3.0350000000000001,0.16013404726982117,
3.0375000000000001,0.15039762854576111,
3.04,0.1398678719997406,
3.0425,0.12873709201812744,
3.0449999999999999,0.10512928664684296,
3.0474999999999999,0.092868611216545105,
3.0499999999999998,0.080439649522304535,
3.0525000000000002,0.067914530634880066,
3.0550000000000002,0.042888324707746506,
3.0575000000000001,0.030627649277448654,
3.0600000000000001,0.018655460327863693,
3.0625,0.007140040397644043,
3.0649999999999999,-0.014232000336050987,
3.0674999999999999,-0.023896297439932823,
3.0699999999999998,-0.032887458801269531,
3.0724999999999998,-0.041157405823469162,
3.0750000000000002,-0.055725973099470139,
3.0775000000000001,-0.06212075799703598,
3.0800000000000001,-0.067938566207885742,
3.0825,-0.073155365884304047,
3.085,-0.081761881709098816,
3.0874999999999999,-0.084983311593532562,
3.0899999999999999,-0.087459489703178406,
3.0924999999999998,-0.089166365563869476,
3.0950000000000002,-0.090536676347255707,
3.0975000000000001,-0.090464554727077484,
3.1000000000000001,-0.09015202522277832,
3.1025,-0.089791417121887207,
3.105,-0.089719295501708984,
3.1074999999999999,-0.090248189866542816,
3.1099999999999999,-0.091161727905273438,
3.1124999999999998,-0.092387795448303223,
3.1150000000000002,-0.095152460038661957,
3.1175000000000002,-0.096306405961513519,
3.1200000000000001,-0.097075700759887695,
3.1225000000000001,-0.097388230264186859,
3.125,-0.097171865403652191,
3.1274999999999999,-0.09556114673614502,
3.1299999999999999,-0.094503365457057953,
3.1324999999999998,-0.093541741371154785,
3.1349999999999998,-0.092676281929016113,
3.1375000000000002,-0.093036890029907227,
3.1400000000000001,-0.093926392495632172,
3.1425000000000001,-0.095272660255432129,
3.145,-0.09871046245098114,
3.1475,-0.10036925971508026,
3.1499999999999999,-0.10173957049846649,
3.1524999999999999,-0.10265310853719711,
3.1549999999999998,-0.10279735177755356,
3.1575000000000002,-0.10200401395559311,
3.1600000000000001,-0.10077794641256332,
3.1625000000000001,-0.099239349365234375,
3.165,-0.095873676240444183,
3.1675,-0.094383165240287781,
3.1699999999999999,-0.093181133270263672,
3.1724999999999999,-0.092363759875297546,
3.1749999999999998,-0.091882944107055664,
3.1775000000000002,-0.092099308967590332,
3.1800000000000002,-0.092532038688659668,
3.1825000000000001,-0.092988811433315277,
3.1850000000000001,-0.093541741371154785,
3.1875,-0.093373462557792664,
3.1899999999999999,-0.092844568192958832,
3.1924999999999999,-0.09193103015422821,
3.1949999999999998,-0.089166365563869476,
3.1974999999999998,-0.087483525276184082,
3.2000000000000002,-0.085800692439079285,
3.2025000000000001,-0.084262095391750336,
3.2050000000000001,-0.082098446786403656,
3.2075,-0.081617638468742371,
3.21,-0.081569552421569824,
3.2124999999999999,-0.081906124949455261,
3.2149999999999999,-0.083420678973197937,
3.2174999999999998,-0.084334217011928558,
3.2200000000000002,-0.085175633430480957,
3.2225000000000001,-0.085872814059257507,
3.2250000000000001,-0.086425743997097015,
3.2275,-0.08628150075674057,
3.23,-0.085872814059257507,
3.2324999999999999,-0.085295841097831726,
3.2349999999999999,-0.083853408694267273,
3.2374999999999998,-0.083180271089076996,
3.2400000000000002,-0.082579255104064941,
3.2425000000000002,-0.082074403762817383,
3.2450000000000001,-0.081377230584621429,
3.2475000000000001,-0.081112787127494812,
3.25,-0.080872379243373871,
3.2524999999999999,-0.08058389276266098,
3.2549999999999999,-0.080223284661769867,
3.2574999999999998,-0.079357825219631195,
3.2599999999999998,-0.078828930854797363,
3.2625000000000002,-0.078276000916957855,
3.2650000000000001,-0.077242255210876465,
3.2675000000000001,-0.076785489916801453,
3.27,-0.076400838792324066,
3.2725,-0.076088309288024902,
3.2749999999999999,-0.075535379350185394,
3.2774999999999999,-0.075246892869472504,
3.2799999999999998,-0.07493436336517334,
3.2825000000000002,-0.07454971969127655,
3.2850000000000001,-0.074068903923034668,
3.2875000000000001,-0.072866879403591156,
3.29,-0.072217784821987152,
3.2925,-0.071568690240383148,
3.2949999999999999,-0.070583030581474304,
3.2974999999999999,-0.070366665720939636,
3.2999999999999998,-0.070390701293945312,
3.3025000000000002,-0.070679187774658203,
3.3050000000000002,-0.072025462985038757,
3.3075000000000001,-0.072987079620361328,
3.3100000000000001,-0.074020825326442719,
3.3125,-0.075030528008937836,
3.3149999999999999,-0.076617203652858734,
3.3174999999999999,-0.077001854777336121,
3.3199999999999998,-0.077073976397514343,
3.3224999999999998,-0.076785489916801453,
3.3250000000000002,-0.075294971466064453,
3.3275000000000001,-0.074213147163391113,
3.3300000000000001,-0.073011122643947601,
3.3325,-0.071736976504325867,
3.335,-0.069405041635036469,
3.3374999999999999,-0.068395338952541351,
3.3399999999999999,-0.067553922533988953,
3.3424999999999998,-0.066880784928798676,
3.3450000000000002,-0.065919160842895508,
3.3475000000000001,-0.06565471738576889,
3.3500000000000001,-0.065486431121826172,
3.3525,-0.065462395548820496,
3.355,-0.065895125269889832,
3.3574999999999999,-0.066351890563964844,
3.3599999999999999,-0.067000985145568848,
3.3624999999999998,-0.06781836599111557,
3.3650000000000002,-0.069669485092163086,
3.3675000000000002,-0.070558987557888031,
3.3700000000000001,-0.071280203759670258,
3.3725000000000001,-0.071712933480739594,
3.375,-0.071328282356262207,
3.3774999999999999,-0.070390701293945312,
3.3799999999999999,-0.068924233317375183,
3.3824999999999998,-0.067000985145568848,
3.3849999999999998,-0.06212075799703598,
3.3875000000000002,-0.059452258050441742,
3.3900000000000001,-0.056831836700439453,
3.3925000000000001,-0.054379701614379883,
3.395,-0.050581298768520355,
3.3975,-0.049379270523786545,
3.3999999999999999,-0.048706136643886566,
3.4024999999999999,-0.048561893403530121,
3.4049999999999998,-0.049739878624677658,
3.4075000000000002,-0.050941906869411469,
3.4100000000000001,-0.052432417869567871,
3.4125000000000001,-0.054115258157253265,
3.415,-0.05750497430562973,
3.4175,-0.058851242065429688,
3.4199999999999999,-0.059716701507568359,
3.4224999999999999,-0.05983690544962883,
3.4249999999999998,-0.057168405503034592,
3.4275000000000002,-0.054067175835371017,
3.4300000000000002,-0.049739878624677658,
3.4325000000000001,-0.044234596192836761,
3.4350000000000001,-0.03060360811650753,
3.4375,-0.023175081238150597,
3.4399999999999999,-0.015986960381269455,
3.4424999999999999,-0.0094960136339068413,
3.4449999999999998,-0.00050485134124755859,
3.4474999999999998,0.0012501081218943,
3.4500000000000002,0.0008895000210031867,
3.4525000000000001,-0.0016107162227854133,
3.4550000000000001,-0.01216451358050108,
3.4575,-0.01954495906829834,
3.46,-0.0276947021484375,
3.4624999999999999,-0.036060810089111328,
3.4649999999999999,-0.051542919129133224,
3.4674999999999998,-0.057889621704816818,
3.4700000000000002,-0.063010260462760925,
3.4725000000000001,-0.066832706332206726,
3.4750000000000001,-0.070919595658779144,
3.4775,-0.071640811860561371,
3.48,-0.071833133697509766,
3.4824999999999999,-0.071809098124504089,
3.4849999999999999,-0.071929298341274261,
3.4874999999999998,-0.072289906442165375,
3.4900000000000002,-0.07277071475982666,
3.4925000000000002,-0.073251530528068542,
3.4950000000000001,-0.073251530528068542,
3.4975000000000001,-0.072386071085929871,
3.5,-0.070847474038600922,
3.5024999999999999,-0.068755947053432465,
3.5049999999999999,-0.064572893083095551,
3.5074999999999998,-0.063803598284721375,
3.5099999999999998,-0.065077744424343109,
3.5125000000000002,-0.069212719798088074,
3.5150000000000001,-0.088974043726921082,
3.5175000000000001,-0.10517736524343491,
3.52,-0.12520313262939453,
3.5225,-0.14813780784606934,
3.5249999999999999,-0.19597849249839783,
3.5274999999999999,-0.21631678938865662,
3.5299999999999998,-0.2305968701839447,
3.5325000000000002,-0.23588578402996063,
3.5350000000000001,-0.20802280306816101,
3.5375000000000001,-0.17025510966777802,
3.54,-0.11464934051036835,
3.5425,-0.040989123284816742,
3.5449999999999999,0.15491724014282227,
3.5474999999999999,0.27086478471755981,
3.5499999999999998,0.39224547147750854,
3.5525000000000002,0.5127606987953186,
3.5550000000000002,0.72246634960174561,
3.5575000000000001,0.79747283458709717,
3.5600000000000001,0.8444480299949646,
3.5625,0.85928106307983398,
3.5649999999999999,0.78744792938232422,
3.5674999999999999,0.70465230941772461,
3.5699999999999998,0.59719109535217285,
3.5724999999999998,0.47246873378753662,
3.5750000000000002,0.20561873912811279,
3.5775000000000001,0.08058389276266098,
3.5800000000000001,-0.029209256172180176,
3.5825,-0.11873622983694077,
3.585,-0.22838513553142548,
3.5874999999999999,-0.24978122115135193,
3.5899999999999999,-0.25276225805282593,
3.5924999999999998,-0.24170359969139099,
3.5950000000000002,-0.19650737941265106,
3.5975000000000001,-0.17090420424938202,
3.6000000000000001,-0.1476089209318161,
3.6025,-0.1284005343914032,
3.605,-0.10445614904165268,
3.6074999999999999,-0.098734498023986816,
3.6099999999999999,-0.095777511596679688,
3.6124999999999998,-0.094335079193115234,
3.6150000000000002,-0.092003151774406433,
3.6175000000000002,-0.08986353874206543,
3.6200000000000001,-0.086786352097988129,
3.6225000000000001,-0.082867741584777832,
3.625,-0.073732338845729828,
3.6274999999999999,-0.069164633750915527,
3.6299999999999999,-0.064981579780578613,
3.6324999999999998,-0.061327420175075531,
3.6349999999999998,-0.055581729859113693,
3.6375000000000002,-0.053369998931884766,
3.6400000000000001,-0.051446758210659027,
3.6425000000000001,-0.049667757004499435,
3.645,-0.046181879937648773,
3.6475,-0.044378839433193207,
3.6499999999999999,-0.04245559498667717,
3.6524999999999999,-0.04046022891998291,
3.6549999999999998,-0.036205053329467773,
3.6575000000000002,-0.034017365425825119,
3.6600000000000001,-0.031805634498596191,
3.6625000000000001,-0.029593905434012413,
3.665,-0.025410851463675499,
3.6675,-0.023463567718863487,
3.6699999999999999,-0.021684568375349045,
3.6724999999999999,-0.020097892731428146,
3.6749999999999998,-0.017405351623892784,
3.6775000000000002,-0.016227364540100098,
3.6800000000000002,-0.015097459778189659,
3.6825000000000001,-0.013943513855338097,
3.6850000000000001,-0.011226932518184185,
3.6875,-0.0095440950244665146,
3.6899999999999999,-0.0075246891938149929,
3.6924999999999999,-0.0052167973481118679,
3.6949999999999998,0.00033656758023425937,
3.6974999999999998,0.0035339593887329102,
3.7000000000000002,0.0069477162323892117,
3.7025000000000001,0.010577837936580181,
3.7050000000000001,0.018222730606794357,
3.7075,0.022237500175833702,
3.71,0.02632439136505127,
3.7124999999999999,0.030507445335388184,
3.7149999999999999,0.039162039756774902,
3.7174999999999998,0.043633580207824707,
3.7200000000000002,0.04827340692281723,
3.7225000000000001,0.0530574731528759,
3.7250000000000001,0.063226625323295593,
3.7275,0.068659782409667969,
3.73,0.074357390403747559,
3.7324999999999999,0.080319449305534363,
3.7349999999999999,0.093109011650085449,
3.7374999999999998,0.099888443946838379,
3.7400000000000002,0.10690828412771225,
3.7425000000000002,0.11412044614553452,
3.7450000000000001,0.12873709201812744,
3.7475000000000001,0.13597330451011658,
3.75,0.14299313724040985,
3.7524999999999999,0.14970044791698456,
3.7549999999999999,0.16172072291374207,
3.7574999999999998,0.16693751513957977,
3.7599999999999998,0.17155329883098602,
3.7625000000000002,0.17561614513397217,
3.7650000000000001,0.18222729861736298,
3.7675000000000001,0.18484771251678467,
3.77,0.18708348274230957,
3.7725,0.18886248767375946,
3.7749999999999999,0.19090592861175537,
3.7774999999999999,0.19092997908592224,
3.7799999999999998,0.19008855521678925,
3.7825000000000002,0.18823742866516113,
3.7850000000000001,0.18083295226097107,
3.7875000000000001,0.17508725821971893,
3.79,0.16787509620189667,
3.7925,0.15922050178050995,
3.7949999999999999,0.13794462382793427,
3.7974999999999999,0.12558779120445251,
3.7999999999999998,0.11234144866466522,
3.8025000000000002,0.098446011543273926,
3.8050000000000002,0.069597363471984863,
3.8075000000000001,0.055149000138044357,
3.8100000000000001,0.040965080261230469,
3.8125,0.027261972427368164,
3.8149999999999999,0.0019232432823628187,
3.8174999999999999,-0.0095200538635253906,
3.8199999999999998,-0.020025771111249924,
3.8224999999999998,-0.029617946594953537,
3.8250000000000002,-0.046037636697292328,
3.8275000000000001,-0.05293726921081543,
3.8300000000000001,-0.059043567627668381,
3.8325,-0.064404606819152832,
3.835,-0.073299609124660492,
3.8374999999999999,-0.076977811753749847,
3.8399999999999999,-0.080319449305534363,
3.8424999999999998,-0.083396635949611664,
3.8450000000000002,-0.089142322540283203,
3.8475000000000001,-0.09197910875082016,
3.8500000000000001,-0.094839930534362793,
3.8525,-0.097700759768486023,
3.855,-0.10330220311880112,
3.8574999999999999,-0.10582645982503891,
3.8599999999999999,-0.10801415145397186,
3.8624999999999998,-0.10974507033824921,
3.8650000000000002,-0.11147598922252655,
3.8675000000000002,-0.11145194619894028,
3.8700000000000001,-0.1108749732375145,
3.8725000000000001,-0.10986527055501938,
3.875,-0.10729293525218964,
3.8774999999999999,-0.1061149463057518,
3.8799999999999999,-0.10520140826702118,
3.8824999999999998,-0.10469655692577362,
3.8849999999999998,-0.10500907897949219,
3.8875000000000002,-0.10570625960826874,
3.8900000000000001,-0.10659575462341309,
3.8925000000000001,-0.1075093001127243,
3.895,-0.10871132463216782,
3.8975,-0.10873536765575409,
3.8999999999999999,-0.10830263793468475,
3.9024999999999999,-0.10738909244537354,
3.9049999999999998,-0.10455231368541718,
3.9075000000000002,-0.10289351642131805,
3.9100000000000001,-0.10123471915721893,
3.9125000000000001,-0.099744200706481934,
3.915,-0.0976286381483078,
3.9175,-0.097099743783473969,
3.9199999999999999,-0.096883378922939301,
3.9224999999999999,-0.09693145751953125,
3.9249999999999998,-0.097580552101135254,
3.9275000000000002,-0.097989246249198914,
3.9300000000000002,-0.098349854350090027,
3.9325000000000001,-0.098638340830802917,
3.9350000000000001,-0.098806619644165039,
3.9375,-0.098662376403808594,
3.9399999999999999,-0.098373889923095703,
3.9424999999999999,-0.097941160202026367,
3.9449999999999998,-0.096811257302761078,
3.9474999999999998,-0.096138119697570801,
3.9500000000000002,-0.095440946519374847,
3.9525000000000001,-0.094743773341178894,
3.9550000000000001,-0.093373462557792664,
3.9575,-0.092748403549194336,
3.96,-0.092195473611354828,
3.9624999999999999,-0.091666579246520996,
3.9649999999999999,-0.090873241424560547,
3.9674999999999998,-0.090632840991020203,
3.9700000000000002,-0.090488597750663757,
3.9725000000000001,-0.090512633323669434,
3.9750000000000001,-0.09094536304473877,
3.9775,-0.091378092765808105,
3.98,-0.091834865510463715,
3.9824999999999999,-0.092291638255119324,
3.9849999999999999,-0.092844568192958832,
3.9874999999999998,-0.092748403549194336,
3.9900000000000002,-0.092339716851711273,
3.9925000000000002,-0.091594457626342773,
3.9950000000000001,-0.089166365563869476,
3.9975000000000001,-0.087627768516540527,
4,-0.086017057299613953,85.365852355957031
4.0025000000000004,-0.084406338632106781,
4.0049999999999999,-0.08166571706533432,
4.0075000000000003,-0.08063197135925293,
4.0099999999999998,-0.079814597964286804,
4.0125000000000002,-0.079237625002861023,
4.0149999999999997,-0.078564487397670746,
4.0175000000000001,-0.078348122537136078,
4.0199999999999996,-0.078179836273193359,
4.0225,-0.078035593032836914,
4.0250000000000004,-0.077578827738761902,
4.0274999999999999,-0.077266298234462738,
4.0300000000000002,-0.076881647109985352,
4.0324999999999998,-0.076376795768737793,
4.0350000000000001,-0.074958406388759613,
4.0374999999999996,-0.074020825326442719,
4.04,-0.072939001023769379,
4.0425000000000004,-0.071761012077331543,
4.0449999999999999,-0.069332920014858246,
4.0475000000000003,-0.068275138735771179,
4.0499999999999998,-0.06748180091381073,
4.0525000000000002,-0.067025028169155121,
4.0549999999999997,-0.067337557673454285,
4.0575000000000001,-0.06815493106842041,
4.0599999999999996,-0.069380998611450195,
4.0625,-0.070919595658779144,
4.0650000000000004,-0.074453555047512054,
4.0674999999999999,-0.076208516955375671,
4.0700000000000003,-0.077771149575710297,
4.0724999999999998,-0.079021260142326355,
4.0750000000000002,-0.080175206065177917,
4.0774999999999997,-0.079982876777648926,
4.0800000000000001,-0.079237625002861023,
4.0824999999999996,-0.078011557459831238,
4.085,-0.074381433427333832,
4.0875000000000004,-0.072241827845573425,
4.0899999999999999,-0.070102214813232422,
4.0925000000000002,-0.068082809448242188,
4.0949999999999998,-0.065053701400756836,
4.0975000000000001,-0.064212284982204437,
4.0999999999999996,-0.063827633857727051,
4.1025,-0.063899755477905273,
4.1050000000000004,-0.064957544207572937,
4.1074999999999999,-0.065726839005947113,
4.1100000000000003,-0.066520176827907562,
4.1124999999999998,-0.067241393029689789,
4.1150000000000002,-0.068299174308776855,
4.1174999999999997,-0.068635746836662292,
4.1200000000000001,-0.06885211169719696,
4.1224999999999996,-0.068996354937553406,
4.125,-0.069020390510559082,
4.1275000000000004,-0.068828068673610687,
4.1299999999999999,-0.068467460572719574,
4.1325000000000003,-0.067842409014701843,
4.1349999999999998,-0.065871082246303558,
4.1375000000000002,-0.064572893083095551,
4.1399999999999997,-0.06320258229970932,
4.1425000000000001,-0.061904393136501312,
4.1449999999999996,-0.060101352632045746,
4.1475,-0.05983690544962883,
4.1500000000000004,-0.060053270310163498,
4.1524999999999999,-0.06075044721364975,
4.1550000000000002,-0.062914095818996429,
4.1574999999999998,-0.064019963145256042,
4.1600000000000001,-0.064813300967216492,
4.1624999999999996,-0.065101787447929382,
4.165,-0.063707433640956879,
4.1675000000000004,-0.06200055405497551,
4.1699999999999999,-0.059716701507568359,
4.1725000000000003,-0.057096283882856369,
4.1749999999999998,-0.051711201667785645,
4.1775000000000002,-0.04940330982208252,
4.1799999999999997,-0.047648351639509201,
4.1825000000000001,-0.046518445014953613,
4.1849999999999996,-0.046278040856122971,
4.1875,-0.047095417976379395,
4.1900000000000004,-0.048369567841291428,
4.1924999999999999,-0.049956243485212326,
4.1950000000000003,-0.053514242172241211,
4.1974999999999998,-0.055124960839748383,
4.2000000000000002,-0.056447189301252365,
4.2024999999999997,-0.057288609445095062,
4.2050000000000001,-0.057048201560974121,
4.2074999999999996,-0.055725973099470139,
4.21,-0.053442120552062988,
4.2125000000000004,-0.050148569047451019,
4.2149999999999999,-0.040700636804103851,
4.2175000000000002,-0.034738581627607346,
4.2199999999999998,-0.028247635811567307,
4.2225000000000001,-0.021516283974051476,
4.2249999999999996,-0.0087507572025060654,
4.2275,-0.0034858784638345242,
4.2300000000000004,0.00055293244076892734,
4.2324999999999999,0.0030771892052143812,
4.2350000000000003,0.0028848648071289062,
4.2374999999999998,0.00014424324035644531,
4.2400000000000002,-0.0042070946656167507,
4.2424999999999997,-0.0099047031253576279,
4.2450000000000001,-0.023872256278991699,
4.2474999999999996,-0.031396947801113129,
4.25,-0.038729310035705566,
4.2525000000000004,-0.045580863952636719,
4.2549999999999999,-0.057000122964382172,
4.2575000000000003,-0.061327420175075531,
4.2599999999999998,-0.064765214920043945,
4.2625000000000002,-0.067385636270046234,
4.2649999999999997,-0.070871517062187195,
4.2675000000000001,-0.071977376937866211,
4.2699999999999996,-0.072794757783412933,
4.2725,-0.073347687721252441,
4.2750000000000004,-0.073443852365016937,
4.2774999999999999,-0.072698593139648438,
4.2800000000000002,-0.071280203759670258,
4.2824999999999998,-0.069140598177909851,
4.2850000000000001,-0.063034296035766602,
4.2874999999999996,-0.059812866151332855,
4.29,-0.057240527123212814,
4.2925000000000004,-0.056158702820539474,
4.2949999999999999,-0.062024593353271484,
4.2975000000000003,-0.070534944534301758,
4.2999999999999998,-0.083444714546203613,
4.3025000000000002,-0.10075390338897705,
4.3049999999999997,-0.14587800204753876,
4.3075000000000001,-0.17100036144256592,
4.3099999999999996,-0.19506494700908661,
4.3125,-0.2154994010925293,
4.3150000000000004,-0.23389041423797607,
4.3174999999999999,-0.22610127925872803,
4.3200000000000003,-0.20355126261711121,
4.3224999999999998,-0.1643892228603363,
4.3250000000000002,-0.033031702041625977,
4.3274999999999997,0.057961743324995041,
4.3300000000000001,0.16287466883659363,
4.3324999999999996,0.27781248092651367,
4.335,0.51612639427185059,
4.3375000000000004,0.62642437219619751,
4.3399999999999999,0.72145664691925049,
4.3425000000000002,0.79458796977996826,
4.3449999999999998,0.85437679290771484,
4.3475000000000001,0.83524048328399658,
4.3499999999999996,0.78333699703216553,
4.3525,0.70181548595428467,
4.3550000000000004,0.4729495644569397,
4.3574999999999999,0.34113526344299316,
4.3600000000000003,0.20917674899101257,
4.3624999999999998,0.085223719477653503,
4.3650000000000002,-0.11289437860250473,
4.3674999999999997,-0.17924627661705017,
4.3700000000000001,-0.22232691943645477,
4.3724999999999996,-0.24372300505638123,
4.375,-0.23566941916942596,
4.3775000000000004,-0.21537920832633972,
4.3799999999999999,-0.19049724936485291,
4.3825000000000003,-0.16503831744194031,
4.3849999999999998,-0.12315969169139862,
4.3875000000000002,-0.10926425457000732,
4.3899999999999997,-0.1000567302107811,
4.3925000000000001,-0.094599530100822449,
4.3949999999999996,-0.089791417121887207,
4.3975,-0.087988376617431641,
4.4000000000000004,-0.085391998291015625,
4.4024999999999999,-0.081617638468742371,
4.4050000000000002,-0.070823431015014648,
4.4074999999999998,-0.064645014703273773,
4.4100000000000001,-0.058658920228481293,
4.4124999999999996,-0.053369998931884766,
4.415,-0.046205919235944748,
4.4175000000000004,-0.044475000351667404,
4.4199999999999999,-0.043753784149885178,
4.4225000000000003,-0.04370570182800293,
4.4249999999999998,-0.04399418830871582,
4.4275000000000002,-0.043609540909528732,
4.4299999999999997,-0.04245559498667717,
4.4325000000000001,-0.040436189621686935,
4.4349999999999996,-0.033993326127529144,
4.4375,-0.029954513534903526,
4.4400000000000004,-0.025723379105329514,
4.4424999999999999,-0.021636486053466797,
4.4450000000000003,-0.01490513514727354,
4.4474999999999998,-0.012621283531188965,
4.4500000000000002,-0.01108268927782774,
4.4524999999999997,-0.010217229835689068,
4.4550000000000001,-0.0098085403442382812,
4.4574999999999996,-0.0098085403442382812,
4.46,-0.0096162166446447372,
4.4625000000000004,-0.0090632839128375053,
4.4649999999999999,-0.0063707432709634304,
4.4675000000000002,-0.0041590137407183647,
4.4699999999999998,-0.0013703107833862305,
4.4725000000000001,0.0055533647537231445,
4.4749999999999996,0.0094719734042882919,
4.4775,0.013558864593505859,
4.4800000000000004,0.017693838104605675,
4.4824999999999999,0.025771459564566612,
4.4850000000000003,0.029617946594953537,
4.4874999999999998,0.03322402760386467,
4.4900000000000002,0.036661826074123383,
4.4924999999999997,0.039907298982143402,
4.4950000000000001,0.046205919235944748,
4.4974999999999996,0.049499474465847015,
4.5,0.053105555474758148,
4.5025000000000004,0.057144366204738617,
4.5049999999999999,0.067169271409511566,
4.5075000000000003,0.073251530528068542,
4.5099999999999998,0.080054998397827148,
4.5125000000000002,0.087459489703178406,
4.5149999999999997,0.10344644635915756,
4.5175000000000001,0.11159618943929672,
4.5199999999999996,0.11957764625549316,
4.5225,0.13433854281902313,
4.5250000000000004,0.14090161025524139,
4.5274999999999999,0.14693579077720642,
4.5300000000000002,0.1524651050567627,
4.5324999999999998,0.16246597468852997,
4.5350000000000001,0.16717791557312012,
4.5374999999999996,0.17188987135887146,
4.54,0.17667393386363983,
4.5425000000000004,0.18657863140106201,
4.5449999999999999,0.19167523086071014,
4.5475000000000003,0.19672374427318573,
4.5499999999999998,0.20157992839813232,
4.5525000000000002,0.20984987914562225,
4.5549999999999997,0.21280686557292938,
4.5575000000000001,0.21463394165039062,
4.5599999999999996,0.21516284346580505,
4.5625,0.21179716289043427,
4.5650000000000004,0.20780643820762634,
4.5674999999999999,0.2023492306470871,
4.5700000000000003,0.19559383392333984,
4.5724999999999998,0.17886161804199219,
4.5750000000000002,0.1693415641784668,
4.5774999999999997,0.15934070944786072,
4.5800000000000001,0.14895519614219666,
4.5824999999999996,0.12753507494926453,
4.585,0.11657258123159409,
4.5875000000000004,0.10539373010396957,
4.5899999999999999,0.094046592712402344,
4.5925000000000002,0.070703230798244476,
4.5949999999999998,0.058827202767133713,
4.5975000000000001,0.046903096139431,
4.5999999999999996,0.035027068108320236,
4.6025,0.012116432189941406,
4.6050000000000004,0.0013462703209370375,
4.6074999999999999,-0.008822878822684288,
4.6100000000000003,-0.01829485222697258,
4.6124999999999998,-0.034954946488142014,
4.6150000000000002,-0.042094986885786057,
4.6174999999999997,-0.04844168946146965,
4.6200000000000001,-0.054043136537075043,
4.6224999999999996,-0.063154503703117371,
4.625,-0.06678462028503418,
4.6275000000000004,-0.069861814379692078,
4.6299999999999999,-0.072506271302700043,
4.6325000000000003,-0.076833568513393402,
4.6349999999999998,-0.078708730638027191,
4.6375000000000002,-0.080463692545890808,
4.6399999999999997,-0.082146525382995605,
4.6425000000000001,-0.085295841097831726,
4.6449999999999996,-0.086666151881217957,
4.6475,-0.087820097804069519,
4.6500000000000004,-0.088661514222621918,
4.6524999999999999,-0.089238487184047699,
4.6550000000000002,-0.088974043726921082,
4.6574999999999998,-0.088324949145317078,
4.6600000000000001,-0.087411403656005859,
4.6624999999999996,-0.085031390190124512,
4.665,-0.083709165453910828,
4.6675000000000004,-0.08241097629070282,
4.6699999999999999,-0.081184908747673035,
4.6725000000000003,-0.079021260142326355,
4.6749999999999998,-0.078155800700187683,
4.6775000000000002,-0.077506706118583679,
4.6799999999999997,-0.077073976397514343,
4.6825000000000001,-0.07704993337392807,
4.6849999999999996,-0.077506706118583679,
4.6875,-0.078276000916957855,
4.6900000000000004,-0.079333782196044922,
4.6924999999999999,-0.081906124949455261,
4.6950000000000003,-0.083180271089076996,
4.6974999999999998,-0.084286138415336609,
4.7000000000000002,-0.085103511810302734,
4.7024999999999997,-0.085632406175136566,
4.7050000000000001,-0.085343919694423676,
4.7074999999999996,-0.084790989756584167,
4.71,-0.08411785215139389,
4.7125000000000004,-0.082867741584777832,
4.7149999999999999,-0.082555219531059265,
4.7175000000000002,-0.082555219531059265,
4.7199999999999998,-0.082819662988185883,
4.7225000000000001,-0.083853408694267273,
4.7249999999999996,-0.084358260035514832,
4.7275,-0.084622703492641449,
4.7300000000000004,-0.084478460252285004,
4.7324999999999999,-0.08269946277141571,
4.7350000000000003,-0.081040665507316589,
4.7374999999999998,-0.078949138522148132,
4.7400000000000002,-0.076593160629272461,
4.7424999999999997,-0.071833133697509766,
4.7450000000000001,-0.069789692759513855,
4.7474999999999996,-0.068130895495414734,
4.75,-0.067000985145568848,
4.7525000000000004,-0.066159568727016449,
4.7549999999999999,-0.066303811967372894,
4.7575000000000003,-0.066640377044677734,
4.7599999999999998,-0.067049071192741394,
4.7625000000000002,-0.067361593246459961,
4.7649999999999997,-0.067097149789333344,
4.7675000000000001,-0.066496133804321289,
4.7699999999999996,-0.065630674362182617,
4.7725,-0.063394904136657715,
4.7750000000000004,-0.0622890405356884,
4.7774999999999999,-0.06137549877166748,
4.7800000000000002,-0.060702364891767502,
4.7824999999999998,-0.060293674468994141,
4.7850000000000001,-0.060486000031232834,
4.7874999999999996,-0.060798525810241699,
4.79,-0.061159133911132812,
4.7925000000000004,-0.061567824333906174,
4.7949999999999999,-0.061519742012023926,
4.7975000000000003,-0.061255298554897308,
4.7999999999999998,-0.060846608132123947,
4.8025000000000002,-0.059981148689985275,
4.8049999999999997,-0.059692662209272385,
4.8075000000000001,-0.059572458267211914,
4.8099999999999996,-0.059644579887390137,
4.8125,-0.060173474252223969,
4.8150000000000004,-0.060437917709350586,
4.8174999999999999,-0.060582160949707031,
4.8200000000000003,-0.060461960732936859,
4.8224999999999998,-0.059308014810085297,
4.8250000000000002,-0.058298312127590179,
4.8274999999999997,-0.057120323181152344,
4.8300000000000001,-0.055870216339826584,
4.8324999999999996,-0.053850810974836349,
4.835,-0.053321920335292816,
4.8375000000000004,-0.053177677094936371,
4.8399999999999999,-0.053418081253767014,
4.8425000000000002,-0.054836474359035492,
4.8449999999999998,-0.055725973099470139,
4.8475000000000001,-0.056519310921430588,
4.8499999999999996,-0.057072244584560394,
4.8525,-0.057072244584560394,
4.8550000000000004,-0.05647122859954834,
4.8574999999999999,-0.055509608238935471,
4.8600000000000003,-0.054331623017787933,
4.8624999999999998,-0.05180736631155014,
4.8650000000000002,-0.050797663629055023,
4.8674999999999997,-0.050148569047451019,
4.8700000000000001,-0.049932204186916351,
4.8724999999999996,-0.050821702927350998,
4.875,-0.051831405609846115,
4.8775000000000004,-0.0530574731528759,
4.8799999999999999,-0.054331623017787933,
4.8825000000000003,-0.056519310921430588,
4.8849999999999998,-0.057192444801330566,
4.8875000000000002,-0.057480931282043457,
4.8899999999999997,-0.057432852685451508,
4.8925000000000001,-0.057024162262678146,
4.8949999999999996,-0.055557690560817719,
4.8975,-0.054644148796796799,
4.9000000000000004,-0.053682528436183929,
4.9024999999999999,-0.05180736631155014,
4.9050000000000002,-0.050845742225646973,
4.9074999999999998,-0.049860082566738129,
4.9100000000000001,-0.048754215240478516,
4.9124999999999996,-0.046229958534240723,
4.915,-0.044811569154262543,
4.9175000000000004,-0.043321054428815842,
4.9199999999999999,-0.041878622025251389,
4.9225000000000003,-0.039426486939191818,
4.9249999999999998,-0.038585066795349121,
4.9275000000000002,-0.038152337074279785,
4.9299999999999997,-0.03812829777598381,
4.9325000000000001,-0.039258204400539398,
4.9349999999999996,-0.040315985679626465,
4.9375,-0.041518013924360275,
4.9400000000000004,-0.042695999145507812,
4.9424999999999999,-0.044090352952480316,
4.9450000000000003,-0.043898027390241623,
4.9474999999999998,-0.042840242385864258,
4.9500000000000002,-0.040796797722578049,
4.9524999999999997,-0.033776961266994476,
4.9550000000000001,-0.029016932472586632,
4.9574999999999996,-0.023679932579398155,
4.96,-0.018126567825675011,
4.9625000000000004,-0.0077650947496294975,
4.9649999999999999,-0.0036541621666401625,
4.9675000000000002,-0.00060101354029029608,
4.9699999999999998,0.0011539459228515625,
4.9725000000000001,0.00064909458160400391,
4.9749999999999996,-0.0015145540237426758,
4.9775,-0.004735986702144146,
4.9800000000000004,-0.0088469190523028374,
4.9824999999999999,-0.018703540787100792,
4.9850000000000003,-0.024040540680289268,
4.9874999999999998,-0.029377540573477745,
4.9900000000000002,-0.034570299088954926,
4.9924999999999997,-0.044042270630598068,
4.9950000000000001,-0.048129163682460785,
4.9974999999999996,-0.051783323287963867,
5,-0.054932635277509689,83.499000549316406
5.0025000000000004,-0.059909027069807053,
5.0049999999999999,-0.06183227151632309,
5.0075000000000003,-0.063442990183830261,
5.0099999999999998,-0.064837336540222168,
5.0125000000000002,-0.066856741905212402,
5.0149999999999997,-0.067361593246459961,
5.0175000000000001,-0.067385636270046234,
5.0199999999999996,-0.066808663308620453,
5.0225,-0.06353914737701416,
5.0250000000000004,-0.060966812074184418,
5.0274999999999999,-0.058178108185529709,
5.0300000000000002,-0.055677890777587891,
5.0324999999999998,-0.054764352738857269,
5.0350000000000001,-0.058105986565351486,
5.0374999999999996,-0.065101787447929382,
5.04,-0.076352760195732117,
5.0425000000000004,-0.11198084056377411,
5.0449999999999999,-0.1352040022611618,
5.0475000000000003,-0.16027829051017761,
5.0499999999999998,-0.18513619899749756,
5.0525000000000002,-0.22362510859966278,
5.0549999999999997,-0.23129403591156006,
5.0575000000000001,-0.22718310356140137,
5.0599999999999996,-0.20859977602958679,
5.0625,-0.12044310569763184,
5.0650000000000004,-0.04940330982208252,
5.0674999999999999,0.038585066795349121,
5.0700000000000003,0.14102181792259216,
5.0724999999999998,0.37221968173980713,
5.0750000000000002,0.48941731452941895,
5.0774999999999997,0.59853732585906982,
5.0800000000000001,0.69248777627944946,
5.0824999999999996,0.8091084361076355,
5.085,0.82228267192840576,
5.0875000000000004,0.80235302448272705,
5.0899999999999999,0.75004082918167114,
5.0925000000000002,0.56351029872894287,
5.0949999999999998,0.44203341007232666,
5.0975000000000001,0.31247895956039429,
5.0999999999999996,0.18345336616039276,
5.1025,0.062986217439174652,
5.1050000000000004,-0.12739083170890808,
5.1074999999999999,-0.18989622592926025,
5.1100000000000003,-0.22941887378692627,
5.1124999999999998,-0.24824261665344238,
5.1150000000000002,-0.23530881106853485,
5.1174999999999997,-0.21379253268241882,
5.1200000000000001,-0.18828551471233368,
5.1224999999999996,-0.14003615081310272,
5.125,-0.12195765972137451,
5.1275000000000004,-0.10904788970947266,
5.1299999999999999,-0.10101835429668427,
5.1325000000000003,-0.095008216798305511,
5.1349999999999998,-0.094214878976345062,
5.1375000000000002,-0.093157097697257996,
5.1399999999999997,-0.090993449091911316,
5.1425000000000001,-0.081930160522460938,
5.1449999999999996,-0.075367093086242676,
5.1475,-0.068130895495414734,
5.1500000000000004,-0.060846608132123947,
5.1524999999999999,-0.048417650163173676,
5.1550000000000002,-0.044066309928894043,
5.1574999999999998,-0.041085284203290939,
5.1600000000000001,-0.03937840461730957,
5.1624999999999996,-0.038681231439113617,
5.165,-0.038969717919826508,
5.1675000000000004,-0.039258204400539398,
5.1699999999999999,-0.039258204400539398,
5.1725000000000003,-0.037984054535627365,
5.1749999999999998,-0.036637783050537109,
5.1775000000000002,-0.034930907189846039,
5.1799999999999997,-0.032935541123151779,
5.1825000000000001,-0.028560161590576172,
5.1849999999999996,-0.026276310905814171,
5.1875,-0.02399246022105217,
5.1900000000000004,-0.02170860767364502,
5.1924999999999999,-0.017020702362060547,
5.1950000000000003,-0.01461664866656065,
5.1974999999999998,-0.012188553810119629,
5.2000000000000002,-0.0097845001146197319,
5.2024999999999997,-0.0051687164232134819,
5.2050000000000001,-0.0030050675850361586,
5.2074999999999996,-0.00096162164118140936,
5.21,0.0010577838402241468,
5.2125000000000004,0.0051927566528320312,
5.2149999999999999,0.0075487298890948296,
5.2175000000000002,0.010217229835689068,
5.2199999999999998,0.013294419273734093,
5.2225000000000001,0.020819108933210373,
5.2249999999999996,0.025218527764081955,
5.2275,0.029930472373962402,
5.2300000000000004,0.034834742546081543,
5.2324999999999999,0.044595204293727875,
5.2350000000000003,0.049138866364955902,
5.2374999999999998,0.053369998931884766,
5.2400000000000002,0.05721648782491684,
5.2424999999999997,0.064019963145256042,
5.2450000000000001,0.067169271409511566,
5.2474999999999996,0.070414744317531586,
5.25,0.073900625109672546,
5.2525000000000004,0.082266733050346375,
5.2549999999999999,0.087387368083000183,
5.2575000000000003,0.093133054673671722,
5.2599999999999998,0.099527835845947266,
5.2625000000000002,0.11383195966482162,
5.2649999999999997,0.12147685140371323,
5.2675000000000001,0.12926599383354187,
5.2699999999999996,0.13707916438579559,
5.2725,0.15220066905021667,
5.2750000000000004,0.15931665897369385,
5.2774999999999999,0.16602396965026855,
5.2800000000000002,0.17225047945976257,
5.2824999999999998,0.18282830715179443,
5.2850000000000001,0.18705944716930389,
5.2874999999999996,0.19049724936485291,
5.29,0.1931176632642746,
5.2925000000000004,0.19588232040405273,
5.2949999999999999,0.19605061411857605,
5.2975000000000003,0.19552171230316162,
5.2999999999999998,0.19429564476013184,
5.3025000000000002,0.19001643359661102,
5.3049999999999997,0.18696328997612,
5.3075000000000001,0.18323700129985809,
5.3099999999999996,0.17876546084880829,
5.3125,0.16708175837993622,
5.3150000000000004,0.15962919592857361,
5.3174999999999999,0.15097460150718689,
5.3200000000000003,0.14111797511577606,
5.3224999999999998,0.11787077039480209,
5.3250000000000002,0.10479271411895752,
5.3274999999999997,0.091017484664916992,
5.3300000000000001,0.076833568513393402,
5.3324999999999996,0.048393607139587402,
5.335,0.034666460007429123,
5.3375000000000004,0.021588405594229698,
5.3399999999999999,0.009255608543753624,
5.3425000000000002,-0.012885729782283306,
5.3449999999999998,-0.022694271057844162,
5.3475000000000001,-0.031709473580121994,
5.3499999999999996,-0.040027499198913574,
5.3525,-0.054716270416975021,
5.3550000000000004,-0.061135094612836838,
5.3574999999999999,-0.066904827952384949,
5.3600000000000003,-0.072001419961452484,
5.3624999999999998,-0.080079041421413422,
5.3650000000000002,-0.083060070872306824,
5.3674999999999997,-0.085367962718009949,
5.3700000000000001,-0.087146960198879242,
5.3724999999999996,-0.089671216905117035,
5.375,-0.090753041207790375,
5.3775000000000004,-0.091906987130641937,
5.3799999999999999,-0.093277297914028168,
5.3825000000000003,-0.096763178706169128,
5.3849999999999998,-0.098854705691337585,
5.3875000000000002,-0.10101835429668427,
5.3899999999999997,-0.1031339168548584,
5.3925000000000001,-0.1067640408873558,
5.3949999999999996,-0.10803818702697754,
5.3975,-0.10890364646911621,
5.4000000000000004,-0.10936041921377182,
5.4024999999999999,-0.1091921329498291,
5.4050000000000002,-0.10873536765575409,
5.4074999999999998,-0.10818243026733398,
5.4100000000000001,-0.1076054573059082,
5.4124999999999996,-0.10666787624359131,
5.415,-0.10640343278646469,
5.4175000000000004,-0.10628323256969452,
5.4199999999999999,-0.10633131116628647,
5.4225000000000003,-0.10671596229076385,
5.4249999999999998,-0.10698040574789047,
5.4275000000000002,-0.10722081363201141,
5.4299999999999997,-0.10741313546895981,
5.4325000000000001,-0.10748525708913803,
5.4349999999999996,-0.10738909244537354,
5.4375,-0.10717272758483887,
5.4400000000000004,-0.10693232715129852,
5.4424999999999999,-0.10637938976287842,
5.4450000000000003,-0.10613898932933807,
5.4474999999999998,-0.10592262446880341,
5.4500000000000002,-0.10573029518127441,
5.4524999999999997,-0.10529756546020508,
5.4550000000000001,-0.10503312200307846,
5.4574999999999996,-0.1047205924987793,
5.46,-0.10435998439788818,
5.4625000000000004,-0.10359068959951401,
5.4649999999999999,-0.10327816009521484,
5.4675000000000002,-0.10308583825826645,
5.4699999999999998,-0.1030377596616745,
5.4725000000000001,-0.10337432473897934,
5.4749999999999996,-0.10373493283987045,
5.4775,-0.10411958396434784,
5.4800000000000004,-0.10450422763824463,
5.4824999999999999,-0.10486483573913574,
5.4850000000000003,-0.10476867854595184,
5.4874999999999998,-0.10443210601806641,
5.4900000000000002,-0.10385513305664062,
5.4924999999999997,-0.10217230021953583,
5.4950000000000001,-0.10111451148986816,
5.4974999999999996,-0.10003268718719482,
5.5,-0.098902784287929535,
5.5025000000000004,-0.096667014062404633,
5.5049999999999999,-0.095537111163139343,
5.5075000000000003,-0.094383165240287781,
5.5099999999999998,-0.093133054673671722,
5.5125000000000002,-0.090272232890129089,
5.5149999999999997,-0.088661514222621918,
5.5175000000000001,-0.086954638361930847,
5.5199999999999996,-0.085223719477653503,
5.5225,-0.081930160522460938,
5.5250000000000004,-0.080559849739074707,
5.5274999999999999,-0.079429946839809418,
5.5300000000000002,-0.078636609017848969,
5.5324999999999998,-0.078035593032836914,
5.5350000000000001,-0.078179836273193359,
5.5374999999999996,-0.078540444374084473,
5.54,-0.079069338738918304,
5.5425000000000004,-0.080175206065177917,
5.5449999999999999,-0.080607935786247253,
5.5475000000000003,-0.080872379243373871,
5.5499999999999998,-0.080944500863552094,
5.5525000000000002,-0.080343484878540039,
5.5549999999999997,-0.079694390296936035,
5.5575000000000001,-0.078852973878383636,
5.5599999999999996,-0.077843271195888519,
5.5625,-0.075655579566955566,
5.5650000000000004,-0.074645876884460449,
5.5674999999999999,-0.073804460465908051,
5.5700000000000003,-0.073275566101074219,
5.5724999999999998,-0.073347687721252441,
5.5750000000000002,-0.074044868350028992,
5.5774999999999997,-0.075174771249294281,
5.5800000000000001,-0.076641246676445007,
5.5824999999999996,-0.080151163041591644,
5.585,-0.081882081925868988,
5.5875000000000004,-0.083324514329433441,
5.5899999999999999,-0.084382295608520508,
5.5925000000000002,-0.08486311137676239,
5.5949999999999998,-0.084262095391750336,
5.5975000000000001,-0.083132192492485046,
5.5999999999999996,-0.081617638468742371,
5.6025,-0.077867314219474792,
5.6050000000000004,-0.075920030474662781,
5.6074999999999999,-0.074092946946620941,
5.6100000000000003,-0.07248222827911377,
5.6124999999999998,-0.070054136216640472,
5.6150000000000002,-0.069284841418266296,
5.6174999999999997,-0.068779990077018738,
5.6200000000000001,-0.068515539169311523,
5.6224999999999996,-0.068683825433254242,
5.625,-0.069092512130737305,
5.6275000000000004,-0.069717571139335632,
5.6299999999999999,-0.070558987557888031,
5.6325000000000003,-0.072818800806999207,
5.6349999999999998,-0.074165068566799164,
5.6375000000000002,-0.075583457946777344,
5.6399999999999997,-0.076953768730163574,
5.6425000000000001,-0.079069338738918304,
5.6449999999999996,-0.079622268676757812,
5.6475,-0.079694390296936035,
5.6500000000000004,-0.079261660575866699,
5.6524999999999999,-0.076977811753749847,
5.6550000000000002,-0.075343057513237,
5.6574999999999998,-0.073564052581787109,
5.6600000000000001,-0.071785055100917816,
5.6624999999999996,-0.068731904029846191,
5.665,-0.067577958106994629,
5.6675000000000004,-0.066664420068264008,
5.6699999999999999,-0.065895125269889832,
5.6725000000000003,-0.064332485198974609,
5.6749999999999998,-0.063274703919887543,
5.6775000000000002,-0.061952471733093262,
5.6799999999999997,-0.060365796089172363,
5.6825000000000001,-0.05675971508026123,
5.6849999999999996,-0.055100917816162109,
5.6875,-0.053826771676540375,
5.6900000000000004,-0.053081512451171875,
5.6924999999999999,-0.053706567734479904,
5.6950000000000003,-0.055028796195983887,
5.6974999999999998,-0.056855879724025726,
5.7000000000000002,-0.058947406709194183,
5.7024999999999997,-0.062649652361869812,
5.7050000000000001,-0.063635312020778656,
5.7074999999999996,-0.063683390617370605,
5.71,-0.062649652361869812,
5.7125000000000004,-0.057096283882856369,
5.7149999999999999,-0.052744947373867035,
5.7175000000000002,-0.047576230019330978,
5.7199999999999998,-0.041854582726955414,
5.7225000000000001,-0.029906433075666428,
5.7249999999999996,-0.024304986000061035,
5.7275,-0.019304554909467697,
5.7300000000000004,-0.01521766185760498,
5.7324999999999999,-0.010481676086783409,
5.7350000000000003,-0.010145108215510845,
5.7374999999999998,-0.011250972747802734,
5.7400000000000002,-0.013751189224421978,
5.7424999999999997,-0.022429823875427246,
5.7450000000000001,-0.02815147303044796,
5.7474999999999996,-0.034377973526716232,
5.75,-0.040796797722578049,
5.7525000000000004,-0.052865147590637207,
5.7549999999999999,-0.058009825646877289,
5.7575000000000003,-0.062337122857570648,
5.7599999999999998,-0.065823003649711609,
5.7625000000000002,-0.070655152201652527,
5.7649999999999997,-0.072337985038757324,
5.7675000000000001,-0.073804460465908051,
5.7699999999999996,-0.07522284984588623,
5.7725,-0.078155800700187683,
5.7750000000000004,-0.079526111483573914,
5.7774999999999999,-0.080607935786247253,
5.7800000000000002,-0.081136822700500488,
5.7824999999999998,-0.079694390296936035,
5.7850000000000001,-0.077578827738761902,
5.7874999999999996,-0.074742041528224945,
5.79,-0.071664854884147644,
5.7925000000000004,-0.067770287394523621,
5.7949999999999999,-0.068779990077018738,
5.7975000000000003,-0.073035165667533875,
5.7999999999999998,-0.081257030367851257,
5.8025000000000002,-0.11089901626110077,
5.8049999999999997,-0.13167004287242889,
5.8075000000000001,-0.15510956943035126,
5.8099999999999996,-0.17946264147758484,
5.8125,-0.22158166766166687,
5.8150000000000004,-0.23389041423797607,
5.8174999999999999,-0.23648679256439209,
5.8200000000000003,-0.22663018107414246,
5.8224999999999998,-0.16061484813690186,
5.8250000000000002,-0.10178764909505844,
5.8274999999999997,-0.025603175163269043,
5.8300000000000001,0.066592298448085785,
5.8324999999999996,0.28668344020843506,
5.835,0.40510714054107666,
5.8375000000000004,0.52098256349563599,
5.8399999999999999,0.62731385231018066,
5.8425000000000002,0.78360140323638916,
5.8449999999999998,0.82172971963882446,
5.8475000000000001,0.82786005735397339,
5.8499999999999996,0.80069422721862793,
5.8525,0.65378248691558838,
5.8550000000000004,0.54365277290344238,
5.8574999999999999,0.41861793398857117,
5.8600000000000003,0.28716427087783813,
5.8624999999999998,0.03875335305929184,
5.8650000000000002,-0.063995920121669769,
5.8674999999999997,-0.14595012366771698,
5.8700000000000001,-0.20499369502067566,
5.8724999999999996,-0.25699338316917419,
5.875,-0.25564712285995483,
5.8775000000000004,-0.24175167083740234,
5.8799999999999999,-0.22006711363792419,
5.8825000000000003,-0.17003874480724335,
5.8849999999999998,-0.14794549345970154,
5.8875000000000002,-0.13017952442169189,
5.8899999999999997,-0.11714955419301987,
5.8925000000000001,-0.10339836776256561,
5.8949999999999996,-0.10056158155202866,
5.8975,-0.098854705691337585,
5.9000000000000004,-0.097292065620422363,
5.9024999999999999,-0.092171430587768555,
5.9050000000000002,-0.088228784501552582,
5.9074999999999998,-0.083540879189968109,
5.9100000000000001,-0.078372165560722351,
5.9124999999999996,-0.068130895495414734,
5.915,-0.063635312020778656,
5.9175000000000004,-0.059764783829450607,
5.9199999999999999,-0.05659143254160881,
5.9225000000000003,-0.05214393138885498,
5.9249999999999998,-0.050653420388698578,
5.9275000000000002,-0.049475431442260742,
5.9299999999999997,-0.048465728759765625,
5.9325000000000001,-0.046518445014953613,
5.9349999999999996,-0.045412581413984299,
5.9375,-0.044162474572658539,
5.9400000000000004,-0.042720042169094086,
5.9424999999999999,-0.039306282997131348,
5.9450000000000003,-0.037407081574201584,
5.9474999999999998,-0.035411715507507324,
5.9500000000000002,-0.03339231014251709,
5.9524999999999997,-0.029281377792358398,
5.9550000000000001,-0.027261972427368164,
5.9574999999999996,-0.025266608223319054,
5.96,-0.023295283317565918,
5.9625000000000004,-0.019280513748526573,
5.9649999999999999,-0.017188986763358116,
5.9675000000000002,-0.015049378387629986,
5.9699999999999998,-0.01276552677154541,
5.9725000000000001,-0.0078131761401891708,
5.9749999999999996,-0.0051446757279336452,
5.9775,-0.0023319325409829617,
5.9800000000000004,0.00062505406094714999,
5.9824999999999999,0.0068996353074908257,
5.9850000000000003,0.010193189606070518,
5.9874999999999998,0.013582905754446983,
5.9900000000000002,0.01709282398223877,
5.9924999999999997,0.024401148781180382,
5.9950000000000001,0.028247635811567307,
5.9974999999999996,0.032238364219665527,
6,0.036397378891706467,82.051284790039062
6.0025000000000004,0.045172177255153656,
6.0049999999999999,0.049836039543151855,
6.0075000000000003,0.054644148796796799,
6.0099999999999998,0.059644579887390137,
6.0125000000000002,0.070222422480583191,
6.0149999999999997,0.075847908854484558,
6.0175000000000001,0.081737838685512543,
6.0199999999999996,0.087916254997253418,
6.0225,0.10125875473022461,
6.0250000000000004,0.10839879512786865,
6.0274999999999999,0.11580328643321991,
6.0300000000000002,0.12342413514852524,
6.0324999999999998,0.13881008327007294,
6.0350000000000001,0.14628669619560242,
6.0374999999999996,0.15342673659324646,
6.04,0.16013404726982117,
6.0425000000000004,0.17174562811851501,
6.0449999999999999,0.17660181224346161,
6.0475000000000003,0.18083295226097107,
6.0499999999999998,0.18448710441589355,
6.0525000000000002,0.19013664126396179,
6.0549999999999997,0.19222816824913025,
6.0575000000000001,0.19379079341888428,
6.0599999999999996,0.19480049610137939,
6.0625,0.19487261772155762,
6.0650000000000004,0.19374272227287292,
6.0674999999999999,0.19169926643371582,
6.0700000000000003,0.18864612281322479,
6.0724999999999998,0.17929434776306152,
6.0750000000000002,0.17289957404136658,
6.0774999999999997,0.16530275344848633,
6.0800000000000001,0.15652796626091003,
6.0824999999999996,0.13537228107452393,
6.085,0.12313564866781235,
6.0875000000000004,0.10986527055501938,
6.0899999999999999,0.095753476023674011,
6.0925000000000002,0.065943203866481781,
6.0949999999999998,0.050797663629055023,
6.0975000000000001,0.035916566848754883,
6.0999999999999996,0.021612446755170822,
6.1025,-0.0042311353608965874,
6.1050000000000004,-0.015434026718139648,
6.1074999999999999,-0.025410851463675499,
6.1100000000000003,-0.03413756936788559,
6.1124999999999998,-0.048417650163173676,
6.1150000000000002,-0.054259501397609711,
6.1174999999999997,-0.059452258050441742,
6.1200000000000001,-0.064164206385612488,
6.1224999999999996,-0.072506271302700043,
6.125,-0.07630467414855957,
6.1275000000000004,-0.079862676560878754,
6.1299999999999999,-0.083252392709255219,
6.1325000000000003,-0.08947889506816864,
6.1349999999999998,-0.092315673828125,
6.1375000000000002,-0.094984173774719238,
6.1399999999999997,-0.097436308860778809,
6.1425000000000001,-0.10157128423452377,
6.1449999999999996,-0.10308583825826645,
6.1475,-0.10411958396434784,
6.1500000000000004,-0.10464847087860107,
6.1524999999999999,-0.10402341932058334,
6.1550000000000002,-0.10294159501791,
6.1574999999999998,-0.10149916261434555,
6.1600000000000001,-0.099864408373832703,
6.1624999999999996,-0.096811257302761078,
6.165,-0.095705389976501465,
6.1675000000000004,-0.095032259821891785,
6.1699999999999999,-0.094863973557949066,
6.1725000000000003,-0.095753476023674011,
6.1749999999999998,-0.09659489244222641,
6.1775000000000002,-0.097460351884365082,
6.1799999999999997,-0.098229646682739258,
6.1825000000000001,-0.098998948931694031,
6.1849999999999996,-0.098902784287929535,
6.1875,-0.098518133163452148,
6.1900000000000004,-0.097917124629020691,
6.1924999999999999,-0.096474692225456238,
6.1950000000000003,-0.095825597643852234,
6.1974999999999998,-0.095344781875610352,
6.2000000000000002,-0.095080338418483734,
6.2024999999999997,-0.095104381442070007,
6.2050000000000001,-0.095344781875610352,
6.2074999999999996,-0.095633268356323242,
6.21,-0.096186205744743347,
6.2125000000000004,-0.096330448985099792,
6.2149999999999999,-0.096282362937927246,
6.2175000000000002,-0.096017919480800629,
6.2199999999999998,-0.09551306813955307,
6.2225000000000001,-0.093734070658683777,
6.2249999999999996,-0.092483960092067719,
6.2275,-0.091065570712089539,
6.2300000000000004,-0.088036462664604187,
6.2324999999999999,-0.086666151881217957,
6.2350000000000003,-0.085512205958366394,
6.2374999999999998,-0.084718868136405945,
6.2400000000000002,-0.084430381655693054,
6.2424999999999997,-0.084959268569946289,
6.2450000000000001,-0.085848771035671234,
6.2474999999999996,-0.087002716958522797,
6.25,-0.088228784501552582,
6.2525000000000004,-0.090320311486721039,
6.2549999999999999,-0.090873241424560547,
6.2575000000000003,-0.090993449091911316,
6.2599999999999998,-0.090632840991020203,
6.2625000000000002,-0.088637471199035645,
6.2649999999999997,-0.087195038795471191,
6.2675000000000001,-0.085608363151550293,
6.2699999999999996,-0.082483097910881042,
6.2725,-0.081112787127494812,
6.2750000000000004,-0.07995884120464325,
6.2774999999999999,-0.078997217118740082,
6.2800000000000002,-0.077626906335353851,
6.2824999999999998,-0.077146098017692566,
6.2850000000000001,-0.076761446893215179,
6.2874999999999996,-0.076400838792324066,
6.29,-0.075703665614128113,
6.2925000000000004,-0.075367093086242676,
6.2949999999999999,-0.074982449412345886,
6.2975000000000003,-0.0745977982878685,
6.2999999999999998,-0.074165068566799164,
6.3025000000000002,-0.073251530528068542,
6.3049999999999997,-0.072746679186820984,
6.3075000000000001,-0.072265863418579102,
6.3099999999999996,-0.071328282356262207,
6.3125,-0.070943638682365417,
6.3150000000000004,-0.070655152201652527,
6.3174999999999999,-0.070438787341117859,
6.3200000000000003,-0.070222422480583191,
6.3224999999999998,-0.070174336433410645,
6.3250000000000002,-0.070150300860404968,
6.3274999999999997,-0.070054136216640472,
6.3300000000000001,-0.06964544951915741,
6.3324999999999996,-0.069284841418266296,
6.335,-0.068876147270202637,
6.3375000000000004,-0.068443417549133301,
6.3399999999999999,-0.06781836599111557,
6.3425000000000002,-0.067770287394523621,
6.3449999999999998,-0.067962609231472015,
6.3475000000000001,-0.068395338952541351,
6.3499999999999996,-0.0699339359998703,
6.3525,-0.070919595658779144,
6.3550000000000004,-0.071881219744682312,
6.3574999999999999,-0.072722636163234711,
6.3600000000000003,-0.073732338845729828,
6.3624999999999998,-0.073780417442321777,
6.3650000000000002,-0.07351597398519516,
6.3674999999999997,-0.072939001023769379,
6.3700000000000001,-0.071256160736083984,
6.3724999999999996,-0.070294544100761414,
6.375,-0.069405041635036469,
6.3775000000000004,-0.068611703813076019,
6.3799999999999999,-0.067505836486816406,
6.3825000000000003,-0.067169271409511566,
6.3849999999999998,-0.066952906548976898,
6.3875000000000002,-0.06678462028503418,
6.3899999999999997,-0.066472098231315613,
6.3925000000000001,-0.066255733370780945,
6.3949999999999996,-0.06599128246307373,
6.3975,-0.065678760409355164,
6.4000000000000004,-0.064909458160400391,
6.4024999999999999,-0.064500771462917328,
6.4050000000000002,-0.064092084765434265,
6.4074999999999998,-0.063635312020778656,
6.4100000000000001,-0.062577530741691589,
6.4124999999999996,-0.061952471733093262,
6.415,-0.061279337853193283,
6.4175000000000004,-0.060558121651411057,
6.4199999999999999,-0.059812866151332855,
6.4225000000000003,-0.058394473046064377,
6.4249999999999998,-0.057769417762756348,
6.4275000000000002,-0.05721648782491684,
6.4299999999999997,-0.056182742118835449,
6.4325000000000001,-0.055629812180995941,
6.4349999999999996,-0.054908595979213715,
6.4375,-0.053995054215192795,
6.4400000000000004,-0.051254432648420334,
6.4424999999999999,-0.04940330982208252,
6.4450000000000003,-0.047263704240322113,
6.4474999999999998,-0.044859647750854492,
6.4500000000000002,-0.039811134338378906,
6.4524999999999997,-0.037431120872497559,
6.4550000000000001,-0.035387676209211349,
6.4574999999999996,-0.033849082887172699,
6.46,-0.032839380204677582,
6.4625000000000004,-0.033488474786281586,
6.4649999999999999,-0.034906864166259766,
6.4675000000000002,-0.03692626953125,
6.4699999999999998,-0.041782461106777191,
6.4725000000000001,-0.043898027390241623,
6.4749999999999996,-0.045292377471923828,
6.4775,-0.045556824654340744,
6.4800000000000004,-0.041566096246242523,
6.4824999999999999,-0.037094555795192719,
6.4850000000000003,-0.031084418296813965,
6.4874999999999998,-0.023872256278991699,
6.4900000000000002,-0.0077170133590698242,
6.4924999999999997,0,
6.4950000000000001,0.0067313513718545437,
6.4974999999999996,0.011900067329406738,
6.5,0.016347568482160568,
6.5025000000000004,0.015409986488521099,
6.5049999999999999,0.012501081451773643,
6.5075000000000003,0.0079814596101641655,
6.5099999999999998,-0.0043753786012530327,
6.5125000000000002,-0.011299054138362408,
6.5149999999999997,-0.018198689445853233,
6.5175000000000001,-0.024761756882071495,
6.5199999999999996,-0.036229096353054047,
6.5225,-0.040989123284816742,
6.5250000000000004,-0.045124094933271408,
6.5274999999999999,-0.048682093620300293,
6.5300000000000002,-0.054499905556440353,
6.5324999999999998,-0.056855879724025726,
6.5350000000000001,-0.058851242065429688,
6.5374999999999996,-0.060486000031232834,
6.54,-0.06245732307434082,
6.5425000000000004,-0.062649652361869812,
6.5449999999999999,-0.062144797295331955,
6.5475000000000003,-0.060942769050598145,
6.5499999999999998,-0.056375067681074142,
6.5525000000000002,-0.053297877311706543,
6.5549999999999997,-0.050052404403686523,
6.5575000000000001,-0.047119460999965668,
6.5599999999999996,-0.04478752613067627,
6.5625,-0.046830974519252777,
6.5650000000000004,-0.051999688148498535,
6.5674999999999999,-0.060846608132123947,
6.5700000000000003,-0.090464554727077484,
6.5724999999999998,-0.11070668697357178,
6.5750000000000002,-0.13342499732971191,
6.5774999999999997,-0.15717706084251404,
6.5800000000000001,-0.17999152839183807,
6.5824999999999996,-0.2130713164806366,
6.585,-0.21792750060558319,
6.5875000000000004,-0.21124422550201416,
6.5899999999999999,-0.15388350188732147,
6.5925000000000002,-0.099864408373832703,
6.5949999999999998,-0.028223594650626183,
6.5975000000000001,0.060149431228637695,
6.5999999999999996,0.27665853500366211,
6.6025,0.3961159884929657,
6.6050000000000004,0.51518881320953369,
6.6074999999999999,0.62690520286560059,
6.6100000000000003,0.79966050386428833,
6.6124999999999998,0.84790986776351929,
6.6150000000000002,0.8644978404045105,
6.6174999999999997,0.84735691547393799,
6.6200000000000001,0.71607154607772827,
6.6224999999999996,0.61029314994812012,
6.625,0.48677286505699158,
6.6275000000000004,0.3539729118347168,
6.6299999999999999,0.095344781875610352,
6.6325000000000003,-0.015121500007808208,
6.6349999999999998,-0.10556201636791229,
6.6375000000000002,-0.1730678528547287,
6.6399999999999997,-0.23939570784568787,
6.6425000000000001,-0.24307391047477722,
6.6449999999999996,-0.23254415392875671,
6.6475,-0.21263858675956726,
6.6500000000000004,-0.16270637512207031,
6.6524999999999999,-0.13960342109203339,
6.6550000000000002,-0.1205633133649826,
6.6574999999999998,-0.1063072681427002,
6.6600000000000001,-0.090488597750663757,
6.6624999999999996,-0.086858473718166351,
6.665,-0.084406338632106781,
6.6675000000000004,-0.082074403762817383,
6.6699999999999999,-0.075078606605529785,
6.6725000000000003,-0.070078179240226746,
6.6749999999999998,-0.064356528222560883,
6.6775000000000002,-0.058322351425886154,
6.6799999999999997,-0.047263704240322113,
6.6825000000000001,-0.042936407029628754,
6.6849999999999996,-0.039570730179548264,
6.6875,-0.037166677415370941,
6.6900000000000004,-0.034450095146894455,
6.6924999999999999,-0.033632718026638031,
6.6950000000000003,-0.032839380204677582,
6.6974999999999998,-0.031901799142360687,
6.7000000000000002,-0.029209256172180176,
6.7024999999999997,-0.027478337287902832,
6.7050000000000001,-0.025579135864973068,
6.7074999999999996,-0.023607810959219933,
6.71,-0.01983344554901123,
6.7125000000000004,-0.018150608986616135,
6.7149999999999999,-0.016539892181754112,
6.7175000000000002,-0.015049378387629986,
6.7199999999999998,-0.011924108490347862,
6.7225000000000001,-0.010169148445129395,
6.7249999999999996,-0.0081737842410802841,
6.7275,-0.0059139728546142578,
6.7300000000000004,-0.00057697296142578125,
6.7324999999999999,0.0024040541611611843,
6.7350000000000003,0.0054572029039263725,
6.7374999999999998,0.0084863109514117241,
6.7400000000000002,0.014111797325313091,
6.7424999999999997,0.016563933342695236,
6.7450000000000001,0.018727581948041916,
6.7474999999999996,0.020674865692853928,
6.75,0.024208825081586838,
6.7525000000000004,0.026083987206220627,
6.7549999999999999,0.028247635811567307,
6.7575000000000003,0.030795931816101074,
6.7599999999999998,0.033897161483764648,
6.7625000000000002,0.041902661323547363,
6.7649999999999997,0.046855013817548752,
6.7675000000000001,0.052360296249389648,
6.7699999999999996,0.064669057726860046,
6.7725,0.071232125163078308,
6.7750000000000004,0.077915392816066742,
6.7774999999999999,0.084598660469055176,
6.7800000000000002,0.091185770928859711,
6.7824999999999998,0.1036868542432785,
6.7850000000000001,0.10955274105072021,
6.7874999999999996,0.11513014882802963,
6.79,0.12549161911010742,
6.7925000000000004,0.13041993975639343,
6.7949999999999999,0.13532420992851257,
6.7975000000000003,0.14025251567363739,
6.7999999999999998,0.15058994293212891,
6.8025000000000002,0.15614330768585205,
6.8049999999999997,0.16196112334728241,
6.8075000000000001,0.16797125339508057,
6.8099999999999996,0.18037617206573486,
6.8125,0.18645843863487244,
6.8150000000000004,0.19232432544231415,
6.8174999999999999,0.19780556857585907,
6.8200000000000003,0.20715734362602234,
6.8224999999999998,0.21088361740112305,
6.8250000000000002,0.21386465430259705,
6.8274999999999997,0.21607637405395508,
6.8300000000000001,0.21799962222576141,
6.8324999999999996,0.2175428569316864,
6.835,0.21607637405395508,
6.8375000000000004,0.21345596015453339,
6.8399999999999999,0.20451287925243378,
6.8425000000000002,0.19802193343639374,
6.8449999999999998,0.19016067683696747,
6.8475000000000001,0.18100123107433319,
6.8499999999999996,0.1589801013469696,
6.8525,0.14643093943595886,
6.8550000000000004,0.13308843970298767,
6.8574999999999999,0.11919300258159637,
6.8600000000000003,0.09056071937084198,
6.8624999999999998,0.07630467414855957,
6.8650000000000002,0.062361162155866623,
6.8674999999999997,0.048970580101013184,
6.8700000000000001,0.024401148781180382,
6.8724999999999996,0.013462702743709087,
6.875,0.0034618377685546875,
6.8775000000000004,-0.0055774054490029812,
6.8799999999999999,-0.021011432632803917,
6.8825000000000003,-0.027598541229963303,
6.8849999999999998,-0.033608675003051758,
6.8875000000000002,-0.03908991813659668,
6.8899999999999997,-0.048874419182538986,
6.8925000000000001,-0.053249798715114594,
6.8949999999999996,-0.057312648743391037,
6.8975,-0.06103893369436264,
6.9000000000000004,-0.067409679293632507,
6.9024999999999999,-0.070030093193054199,
6.9050000000000002,-0.072241827845573425,
6.9074999999999998,-0.074068903923034668,
6.9100000000000001,-0.076569125056266785,
6.9124999999999996,-0.077290341258049011,
6.915,-0.077699027955532074,
6.9175000000000004,-0.077843271195888519,
6.9199999999999999,-0.077578827738761902,
6.9225000000000003,-0.077290341258049011,
6.9249999999999998,-0.076977811753749847,
6.9275000000000002,-0.076689325273036957,
6.9299999999999997,-0.076424881815910339,
6.9325000000000001,-0.076497003436088562,
6.9349999999999996,-0.076737403869628906,
6.9375,-0.07709801197052002,
6.9400000000000004,-0.07808367908000946,
6.9424999999999999,-0.078612565994262695,
6.9450000000000003,-0.079141460359096527,
6.9474999999999998,-0.079598233103752136,
6.9500000000000002,-0.08029540628194809,
6.9524999999999997,-0.080511771142482758,
6.9550000000000001,-0.080607935786247253,
6.9574999999999996,-0.080607935786247253,
6.96,-0.08024732768535614,
6.9625000000000004,-0.079862676560878754,
6.9649999999999999,-0.079309746623039246,
6.9675000000000002,-0.078636609017848969,
6.9699999999999998,-0.077001854777336121,
6.9725000000000001,-0.076184473931789398,
6.9749999999999996,-0.075439214706420898,
6.9775,-0.074910327792167664,
6.9800000000000004,-0.074717998504638672,
6.9824999999999999,-0.075126692652702332,
6.9850000000000003,-0.075847908854484558,
6.9874999999999998,-0.076761446893215179,
6.9900000000000002,-0.078660652041435242,
6.9924999999999997,-0.079309746623039246,
6.9950000000000001,-0.079574190080165863,
6.9974999999999996,-0.079381868243217468,
7,-0.077578827738761902,80.459770202636719
7.0025000000000004,-0.076136395335197449,
7.0049999999999999,-0.074501633644104004,
7.0075000000000003,-0.072890922427177429,
7.0099999999999998,-0.070390701293945312,
7.0125000000000002,-0.069741606712341309,
7.0149999999999997,-0.069501206278800964,
7.0175000000000001,-0.06964544951915741,
7.0199999999999996,-0.070534944534301758,
7.0225,-0.070943638682365417,
7.0250000000000004,-0.071111917495727539,
7.0274999999999999,-0.070919595658779144,
7.0300000000000002,-0.069212719798088074,
7.0324999999999998,-0.067722201347351074,
7.0350000000000001,-0.065919160842895508,
7.0374999999999996,-0.06394784152507782,
7.04,-0.060101352632045746,
7.0425000000000004,-0.058490633964538574,
7.0449999999999999,-0.057192444801330566,
7.0475000000000003,-0.056278906762599945,
7.0499999999999998,-0.055629812180995941,
7.0525000000000002,-0.055750012397766113,
7.0549999999999997,-0.056086581200361252,
7.0575000000000001,-0.056495271623134613,
7.0599999999999996,-0.057072244584560394,
7.0625,-0.057048201560974121,
7.0650000000000004,-0.056711636483669281,
7.0674999999999999,-0.055990420281887054,
7.0700000000000003,-0.053586363792419434,
7.0724999999999998,-0.052071809768676758,
7.0750000000000002,-0.050509177148342133,
7.0774999999999997,-0.049090784043073654,
7.0800000000000001,-0.047311782836914062,
7.0824999999999996,-0.047215621918439865,
7.085,-0.047672390937805176,
7.0875000000000004,-0.048634015023708344,
7.0899999999999999,-0.051470797508955002,
7.0925000000000002,-0.05293726921081543,
7.0949999999999998,-0.054115258157253265,
7.0975000000000001,-0.054812431335449219,
7.0999999999999996,-0.05430757999420166,
7.1025,-0.053105555474758148,
7.1050000000000004,-0.051446758210659027,
7.1074999999999999,-0.049451392143964767,
7.1100000000000003,-0.045388542115688324,
7.1124999999999998,-0.04370570182800293,
7.1150000000000002,-0.04245559498667717,
7.1174999999999997,-0.041662257164716721,
7.1200000000000001,-0.041518013924360275,
7.1224999999999996,-0.041998825967311859,
7.125,-0.04274408146739006,
7.1275000000000004,-0.043609540909528732,
7.1299999999999999,-0.045340459793806076,
7.1325000000000003,-0.046013593673706055,
7.1349999999999998,-0.046494405716657639,
7.1375000000000002,-0.046662688255310059,
7.1399999999999997,-0.04598955437541008,
7.1425000000000001,-0.04507601261138916,
7.1449999999999996,-0.043753784149885178,
7.1475,-0.042119026184082031,
7.1500000000000004,-0.038224458694458008,
7.1524999999999999,-0.036253135651350021,
7.1550000000000002,-0.034498177468776703,
7.1574999999999998,-0.033151905983686447,
7.1600000000000001,-0.032118164002895355,
7.1624999999999996,-0.032550893723964691,
7.165,-0.033536553382873535,
7.1675000000000004,-0.034954946488142014,
7.1699999999999999,-0.038248501718044281,
7.1725000000000003,-0.039666891098022461,
7.1749999999999998,-0.040700636804103851,
7.1775000000000002,-0.041181445121765137,
7.1799999999999997,-0.040388107299804688,
7.1825000000000001,-0.039234161376953125,
7.1849999999999996,-0.037791728973388672,
7.1875,-0.036229096353054047,
7.1900000000000004,-0.03339231014251709,
7.1924999999999999,-0.032406650483608246,
7.1950000000000003,-0.031805634498596191,
7.1974999999999998,-0.031565230339765549,
7.2000000000000002,-0.031925838440656662,
7.2024999999999997,-0.032286446541547775,
7.2050000000000001,-0.032647054642438889,
7.2074999999999996,-0.032815337181091309,
7.21,-0.032406650483608246,
7.2125000000000004,-0.031733512878417969,
7.2149999999999999,-0.030723810195922852,
7.2175000000000002,-0.029425621032714844,
7.2199999999999998,-0.026252269744873047,
7.2225000000000001,-0.024569433182477951,
7.2249999999999996,-0.022886594757437706,
7.2275,-0.021347999572753906,
7.2300000000000004,-0.018847784027457237,
7.2324999999999999,-0.017958283424377441,
7.2350000000000003,-0.017261108383536339,
7.2374999999999998,-0.016732215881347656,
7.2400000000000002,-0.015986960381269455,
7.2424999999999997,-0.01567443273961544,
7.2450000000000001,-0.015337864868342876,
7.2474999999999996,-0.014953216537833214,
7.25,-0.013991594314575195,
7.2525000000000004,-0.013438662514090538,
7.2549999999999999,-0.01276552677154541,
7.2575000000000003,-0.011948148719966412,
7.2599999999999998,-0.0093998517841100693,
7.2625000000000002,-0.0074044866487383842,
7.2649999999999997,-0.0047119460068643093,
7.2675000000000001,-0.0012501081218943,
7.2699999999999996,0.0081257028505206108,
7.2725,0.013775229454040527,
7.2750000000000004,0.019713243469595909,
7.2774999999999999,0.025555094704031944,
7.2800000000000002,0.035051107406616211,
7.2824999999999998,0.037815771996974945,
7.2850000000000001,0.038777392357587814,
7.2874999999999996,0.037815771996974945,
7.29,0.030122797936201096,
7.2925000000000004,0.023896297439932823,
7.2949999999999999,0.016636054962873459,
7.2975000000000003,0.008822878822684288,
7.2999999999999998,-0.0064909458160400391,
7.3025000000000002,-0.013198256492614746,
7.3049999999999997,-0.01891990564763546,
7.3075000000000001,-0.023583769798278809,
7.3099999999999996,-0.030002593994140625,
7.3125,-0.032094120979309082,
7.3150000000000004,-0.033704839646816254,
7.3174999999999999,-0.035099189728498459,
7.3200000000000003,-0.037599407136440277,
7.3224999999999998,-0.03875335305929184,
7.3250000000000002,-0.039690934121608734,
7.3274999999999997,-0.040195785462856293,
7.3300000000000001,-0.039162039756774902,
7.3324999999999996,-0.037310920655727386,
7.335,-0.034618377685546875,
7.3375000000000004,-0.031348865479230881,
7.3399999999999999,-0.025314688682556152,
7.3425000000000002,-0.024136703461408615,
7.3449999999999998,-0.025434892624616623,
7.3475000000000001,-0.03014683723449707,
7.3499999999999996,-0.052312217652797699,
7.3525,-0.070174336433410645,
7.3550000000000004,-0.091882944107055664,
7.3574999999999999,-0.11623601615428925,
7.3600000000000003,-0.16491810977458954,
7.3624999999999998,-0.18403033912181854,
7.3650000000000002,-0.19556979835033417,
7.3674999999999997,-0.19641122221946716,
7.3700000000000001,-0.15465280413627625,
7.3724999999999996,-0.10782182216644287,
7.375,-0.04245559498667717,
7.3775000000000004,0.040941040962934494,
7.3799999999999999,0.25259396433830261,
7.3825000000000003,0.37262839078903198,
7.3849999999999998,0.4944898784160614,
7.3875000000000002,0.61132693290710449,
7.3899999999999997,0.80083847045898438,
7.3925000000000001,0.86019456386566162,
7.3949999999999996,0.88909131288528442,
7.3975,0.88473999500274658,
7.4000000000000004,0.77727878093719482,
7.4024999999999999,0.68082809448242188,
7.4050000000000002,0.56399106979370117,
7.4074999999999998,0.43472510576248169,
7.4100000000000001,0.17345249652862549,
7.4124999999999996,0.057360731065273285,
7.415,-0.040700636804103851,
7.4175000000000004,-0.11698126792907715,
7.4199999999999999,-0.20057022571563721,
7.4225000000000003,-0.21114806830883026,
7.4249999999999998,-0.20566682517528534,
7.4275000000000002,-0.18871824443340302,
7.4299999999999997,-0.13888220489025116,
7.4325000000000001,-0.11368771642446518,
7.4349999999999996,-0.091834865510463715,
7.4375,-0.074621841311454773,
7.4400000000000004,-0.054523944854736328,
7.4424999999999999,-0.050172608345746994,
7.4450000000000003,-0.04815320298075676,
7.4474999999999998,-0.047287743538618088,
7.4500000000000002,-0.045532785356044769,
7.4524999999999997,-0.043633580207824707,
7.4550000000000001,-0.040892958641052246,
7.4574999999999996,-0.037431120872497559,
7.46,-0.029449662193655968,
7.4625000000000004,-0.025410851463675499,
7.4649999999999999,-0.021588405594229698,
7.4675000000000002,-0.018030405044555664,
7.4699999999999998,-0.011659662239253521,
7.4725000000000001,-0.0086786355823278427,
7.4749999999999996,-0.0056976079940795898,
7.4775,-0.0027165811043232679,
7.4800000000000004,0.0033416352234780788,
7.4824999999999999,0.0062745809555053711,
7.4850000000000003,0.0090632839128375053,
7.4874999999999998,0.011563500389456749,
7.4900000000000002,0.015626352280378342,
7.4924999999999997,0.017188986763358116,
7.4950000000000001,0.018535256385803223,
7.4974999999999996,0.019761323928833008,
7.5,0.022477906197309494,
7.5025000000000004,0.024184783920645714,
7.5049999999999999,0.026252269744873047,
7.5075000000000003,0.028632283210754395,
7.5099999999999998,0.034065447747707367,
7.5125000000000002,0.036854147911071777,
7.5149999999999997,0.039498608559370041,
7.5175000000000001,0.041854582726955414,
7.5199999999999996,0.045484703034162521,
7.5225,0.046830974519252777,
7.5250000000000004,0.048008959740400314,
7.5274999999999999,0.049138866364955902,
7.5300000000000002,0.051999688148498535,
7.5324999999999998,0.05401909351348877,
7.5350000000000001,0.056543350219726562,
7.5374999999999996,0.059596501290798187,
7.54,0.067169271409511566,
7.5425000000000004,0.071544647216796875,
7.5449999999999999,0.076184473931789398,
7.5475000000000003,0.081016622483730316,
7.5499999999999998,0.091137692332267761,
7.5525000000000002,0.096426606178283691,
7.5549999999999997,0.10183572769165039,
7.5575000000000001,0.10746121406555176,
7.5599999999999996,0.1193612813949585,
7.5625,0.12565991282463074,
7.5650000000000004,0.13217489421367645,
7.5674999999999999,0.13888220489025116,
7.5700000000000003,0.15272955596446991,
7.5724999999999998,0.15974938869476318,
7.5750000000000002,0.16674518585205078,
7.5774999999999997,0.17364482581615448,
7.5800000000000001,0.18689116835594177,
7.5824999999999996,0.19314169883728027,
7.585,0.19903163611888885,
7.5875000000000004,0.204585000872612,
7.5899999999999999,0.21463394165039062,
7.5925000000000002,0.21915356814861298,
7.5949999999999998,0.22340874373912811,
7.5975000000000001,0.22737543284893036,
7.5999999999999996,0.2345154732465744,
7.6025,0.23756861686706543,
7.6050000000000004,0.24021308124065399,
7.6074999999999999,0.24228057265281677,
7.6100000000000003,0.24415573477745056,
7.6124999999999998,0.24367491900920868,
7.6150000000000002,0.24211227893829346,
7.6174999999999997,0.23934762179851532,
7.6200000000000001,0.23018817603588104,
7.6224999999999996,0.22381743788719177,
7.625,0.21634082496166229,
7.6275000000000004,0.20783047378063202,
7.6299999999999999,0.18802106380462646,
7.6325000000000003,0.17684221267700195,
7.6349999999999998,0.16494214534759521,
7.6375000000000002,0.15241703391075134,
7.6399999999999997,0.12587627768516541,
7.6425000000000001,0.1121731624007225,
7.6449999999999996,0.098470054566860199,
7.6475,0.084935232996940613,
7.6500000000000004,0.059259932488203049,
7.6524999999999999,0.047456026077270508,
7.6550000000000002,0.036469500511884689,
7.6574999999999998,0.026372473686933517,
7.6600000000000001,0.0087507572025060654,
7.6624999999999996,0.0010818243026733398,
