Data Set 1:Time(s),Data Set 1:EKG(mV),Data Set 1:Heart Rate(bpm)
0,-0.024641554802656174,88.724586486816406
0.0025000000000000001,-0.022574067115783691,
0.0050000000000000001,-0.021011432632803917,
0.0074999999999999997,-0.020218094810843468,
0.01,-0.020266175270080566,
0.012500000000000001,-0.021131634712219238,
0.014999999999999999,-0.026204189285635948,
0.017500000000000002,-0.027454297989606857,
0.02,-0.028007229790091515,
0.022499999999999999,-0.027742784470319748,
0.025000000000000001,-0.02553105354309082,
0.0275,-0.024425189942121506,
0.029999999999999999,-0.024112662300467491,
0.032500000000000001,-0.025098323822021484,
0.035000000000000003,-0.03231048583984375,
0.037499999999999999,-0.038561027497053146,
0.040000000000000001,-0.046037636697292328,
0.042500000000000003,-0.054043136537075043,
0.044999999999999998,-0.068395338952541351,
0.047500000000000001,-0.073155365884304047,
0.050000000000000003,-0.075559422373771667,
0.052499999999999998,-0.075391136109828949,
0.055,-0.067986652255058289,
0.057500000000000002,-0.061591863632202148,
0.059999999999999998,-0.054259501397609711,
0.0625,-0.046590566635131836,
0.065000000000000002,-0.032502811402082443,
0.067500000000000004,-0.026877325028181076,
0.070000000000000007,-0.022525986656546593,
0.072499999999999995,-0.01954495906829834,
0.074999999999999997,-0.017669796943664551,
0.077499999999999999,-0.018559297546744347,
0.080000000000000002,-0.020386379212141037,
0.082500000000000004,-0.022838514298200607,
0.085000000000000006,-0.028175514191389084,
0.087499999999999994,-0.030291080474853516,
0.089999999999999997,-0.031613312661647797,
0.092499999999999999,-0.032070081681013107,
0.095000000000000001,-0.030819972977042198,
0.097500000000000003,-0.02985835075378418,
0.10000000000000001,-0.029425621032714844,
0.10249999999999999,-0.030050676316022873,
0.105,-0.036060810089111328,
0.1075,-0.041614174842834473,
0.11,-0.048537850379943848,
0.1125,-0.056158702820539474,
0.115,-0.070366665720939636,
0.11749999999999999,-0.075367093086242676,
0.12,-0.078179836273193359,
0.1225,-0.078492365777492523,
0.125,-0.076328717172145844,
0.1275,-0.065510474145412445,
0.13,-0.057697296142578125,
0.13250000000000001,-0.048850379884243011,
0.13500000000000001,-0.0292332973331213,
0.13750000000000001,-0.01891990564763546,
0.14000000000000001,-0.0084622707217931747,
0.14249999999999999,0.0018511216621845961,
0.14499999999999999,0.020482540130615234,
0.14749999999999999,0.02752641960978508,
0.14999999999999999,0.032094120979309082,
0.1525,0.033440392464399338,
0.155,0.024425189942121506,
0.1575,0.013919472694396973,
0.16,-4.8081081331474707e-05,
0.16250000000000001,-0.016539892181754112,
0.16500000000000001,-0.052119892090559006,
0.16750000000000001,-0.068515539169311523,
0.17000000000000001,-0.082338854670524597,
0.17249999999999999,-0.092772446572780609,
0.17499999999999999,-0.10195593535900116,
0.17749999999999999,-0.10094623267650604,
0.17999999999999999,-0.096883378922939301,
0.1825,-0.090488597750663757,
0.185,-0.073732338845729828,
0.1875,-0.064741179347038269,
0.19,-0.056110620498657227,
0.1925,-0.04827340692281723,
0.19500000000000001,-0.036806069314479828,
0.19750000000000001,-0.034161608666181564,
0.20000000000000001,-0.034377973526716232,
0.20250000000000001,-0.03800809383392334,
0.20499999999999999,-0.057649217545986176,
0.20749999999999999,-0.074237190186977386,
0.20999999999999999,-0.095152460038661957,
0.21249999999999999,-0.11976997554302216,
0.215,-0.1752074658870697,
0.2175,-0.20251750946044922,
0.22,-0.22655805945396423,
0.2225,-0.2447807788848877,
0.22500000000000001,-0.25324305891990662,
0.22750000000000001,-0.23841004073619843,
0.23000000000000001,-0.20799875259399414,
0.23250000000000001,-0.16054272651672363,
0.23499999999999999,-0.013102094642817974,
0.23749999999999999,0.084887146949768066,
0.23999999999999999,0.19549767673015594,
0.24249999999999999,0.31435412168502808,
0.245,0.55322092771530151,
0.2475,0.65940797328948975,
0.25,0.74717998504638672,
0.2525,0.81004601716995239,
0.255,0.84252476692199707,
0.25750000000000001,0.80812275409698486,
0.26000000000000001,0.74148237705230713,
0.26250000000000001,0.64688289165496826,
0.26500000000000001,0.40123662352561951,
0.26750000000000002,0.26694616675376892,
0.27000000000000002,0.13657431304454803,
0.27250000000000002,0.017814040184020996,
0.27500000000000002,-0.16263425350189209,
0.27750000000000002,-0.21884104609489441,
0.28000000000000003,-0.25247377157211304,
0.28249999999999997,-0.26608070731163025,
0.28499999999999998,-0.2499014139175415,
0.28749999999999998,-0.22958716750144958,
0.28999999999999998,-0.20710925757884979,
0.29249999999999998,-0.18590550124645233,
0.29499999999999998,-0.15561442077159882,
0.29749999999999999,-0.14789740741252899,
0.29999999999999999,-0.14455577731132507,
0.30249999999999999,-0.14441153407096863,
0.30499999999999999,-0.14852246642112732,
0.3075,-0.15054187178611755,
0.31,-0.15159964561462402,
0.3125,-0.15145540237426758,
0.315,-0.14818589389324188,
0.3175,-0.14582991600036621,
0.32000000000000001,-0.14359414577484131,
0.32250000000000001,-0.14183919131755829,
0.32500000000000001,-0.14049291610717773,
0.32750000000000001,-0.14092564582824707,
0.33000000000000002,-0.14195939898490906,
0.33250000000000002,-0.14335374534130096,
0.33500000000000002,-0.14662325382232666,
0.33750000000000002,-0.14823397994041443,
0.34000000000000002,-0.14970044791698456,
0.34250000000000003,-0.15107075870037079,
0.34499999999999997,-0.15359501540660858,
0.34749999999999998,-0.15477299690246582,
0.34999999999999998,-0.15597502887248993,
0.35249999999999998,-0.15712897479534149,
0.35499999999999998,-0.15922050178050995,
0.35749999999999998,-0.1601099967956543,
0.35999999999999999,-0.16080717742443085,
0.36249999999999999,-0.16133606433868408,
0.36499999999999999,-0.16193708777427673,
0.36749999999999999,-0.16200920939445496,
0.37,-0.16196112334728241,
0.3725,-0.16174475848674774,
0.375,-0.16071102023124695,
0.3775,-0.15972535312175751,
0.38,-0.15835504233837128,
0.38250000000000001,-0.15657603740692139,
0.38500000000000001,-0.15186409652233124,
0.38750000000000001,-0.1490994393825531,
0.39000000000000001,-0.14628669619560242,
0.39250000000000002,-0.14354607462882996,
0.39500000000000002,-0.13907453417778015,
0.39750000000000002,-0.13751189410686493,
0.40000000000000002,-0.13638198375701904,
0.40250000000000002,-0.13563673198223114,
0.40500000000000003,-0.13448278605937958,
0.40749999999999997,-0.13361732661724091,
0.40999999999999998,-0.132222980260849,
0.41249999999999998,-0.13013145327568054,
0.41499999999999998,-0.12340009212493896,
0.41749999999999998,-0.11873622983694077,
0.41999999999999998,-0.11332710832357407,
0.42249999999999999,-0.10734101384878159,
0.42499999999999999,-0.094455286860466003,
0.42749999999999999,-0.087940298020839691,
0.42999999999999999,-0.081617638468742371,
0.4325,-0.075583457946777344,
0.435,-0.064837336540222168,
0.4375,-0.060197513550519943,
0.44,-0.056062541902065277,
0.4425,-0.052432417869567871,
0.44500000000000001,-0.046638648957014084,
0.44750000000000001,-0.044450961053371429,
0.45000000000000001,-0.04274408146739006,
0.45250000000000001,-0.041518013924360275,
0.45500000000000002,-0.040628515183925629,
0.45750000000000002,-0.041013162583112717,
0.46000000000000002,-0.042070947587490082,
0.46250000000000002,-0.0438259057700634,
0.46500000000000002,-0.04969179630279541,
0.46750000000000003,-0.053898893296718597,
0.46999999999999997,-0.058995485305786133,
0.47249999999999998,-0.065005622804164886,
0.47499999999999998,-0.079742476344108582,
0.47749999999999998,-0.088469192385673523,
0.47999999999999998,-0.098037324845790863,
0.48249999999999998,-0.1084468811750412,
0.48499999999999999,-0.13154983520507812,
0.48749999999999999,-0.14412304759025574,
0.48999999999999999,-0.15722513198852539,
0.49249999999999999,-0.17071187496185303,
0.495,-0.19814214110374451,
0.4975,-0.21170100569725037,
0.5,-0.22487521171569824,
0.50249999999999995,-0.23754458129405975,
0.505,-0.26069563627243042,
0.50749999999999995,-0.27100902795791626,
0.51000000000000001,-0.28043290972709656,
0.51249999999999996,-0.28891921043395996,
0.51500000000000001,-0.30331951379776001,
0.51749999999999996,-0.30930560827255249,
0.52000000000000002,-0.31454643607139587,
0.52249999999999996,-0.31916221976280212,
0.52500000000000002,-0.32678306102752686,
0.52749999999999997,-0.33000451326370239,
0.53000000000000003,-0.33293744921684265,
0.53249999999999997,-0.33565402030944824,
0.53500000000000003,-0.34067851305007935,
0.53749999999999998,-0.34305852651596069,
0.54000000000000004,-0.34531831741333008,
0.54249999999999998,-0.34743389487266541,
0.54500000000000004,-0.35118421912193298,
0.54749999999999999,-0.35277089476585388,
0.55000000000000004,-0.35411715507507324,
0.55249999999999999,-0.35524708032608032,
0.55500000000000005,-0.35697799921035767,
0.5575,-0.35762709379196167,
0.56000000000000005,-0.35820406675338745,
0.5625,-0.35873293876647949,
0.56499999999999995,-0.35974264144897461,
0.5675,-0.36027154326438904,
0.56999999999999995,-0.36080044507980347,
0.57250000000000001,-0.36130529642105103,
0.57499999999999996,-0.36231499910354614,
0.57750000000000001,-0.36279579997062683,
0.57999999999999996,-0.36325258016586304,
0.58250000000000002,-0.36370933055877686,
0.58499999999999996,-0.36419016122817993,
0.58750000000000002,-0.36522388458251953,
0.58999999999999997,-0.36582490801811218,
0.59250000000000003,-0.36647400259971619,
0.59499999999999997,-0.36786836385726929,
0.59750000000000003,-0.368613600730896,
0.59999999999999998,-0.36931079626083374,
0.60250000000000004,-0.36995989084243774,
0.60499999999999998,-0.37096959352493286,
0.60750000000000004,-0.3713061511516571,
0.60999999999999999,-0.37147444486618042,
0.61250000000000004,-0.37147444486618042,
0.61499999999999999,-0.37096959352493286,
0.61750000000000005,-0.3704647421836853,
0.62,-0.36983966827392578,
0.62250000000000005,-0.36911845207214355,
0.625,-0.36755582690238953,
0.62749999999999995,-0.3668346107006073,
0.63,-0.36620956659317017,
0.63249999999999995,-0.36572873592376709,
0.63500000000000001,-0.36529600620269775,
0.63749999999999996,-0.36532005667686462,
0.64000000000000001,-0.3654402494430542,
0.64249999999999996,-0.36565661430358887,
0.64500000000000002,-0.36596915125846863,
0.64749999999999996,-0.36596915125846863,
0.65000000000000002,-0.36575278639793396,
0.65249999999999997,-0.36532005667686462,
0.65500000000000003,-0.3637574315071106,
0.65749999999999997,-0.36269962787628174,
0.66000000000000003,-0.36147356033325195,
0.66249999999999998,-0.36019942164421082,
0.66500000000000004,-0.35767516493797302,
0.66749999999999998,-0.35652121901512146,
0.67000000000000004,-0.35546344518661499,
0.67249999999999999,-0.35454988479614258,
0.67500000000000004,-0.35298725962638855,
0.67749999999999999,-0.35233816504478455,
0.68000000000000005,-0.35173714160919189,
0.6825,-0.35118421912193298,
0.68500000000000005,-0.35019856691360474,
0.6875,-0.34978985786437988,
0.68999999999999995,-0.34942924976348877,
0.6925,-0.34914076328277588,
0.69499999999999995,-0.34868401288986206,
0.69750000000000001,-0.34849166870117188,
0.69999999999999996,-0.34832340478897095,
0.70250000000000001,-0.34810703992843628,
0.70499999999999996,-0.34760218858718872,
0.70750000000000002,-0.34728965163230896,
0.70999999999999996,-0.34692904353141785,
0.71250000000000002,-0.34656843543052673,
0.71499999999999997,-0.3459433913230896,
0.71750000000000003,-0.34575104713439941,
0.71999999999999997,-0.34567892551422119,
0.72250000000000003,-0.34572702646255493,
0.72499999999999998,-0.34625589847564697,
0.72750000000000004,-0.34668862819671631,
0.72999999999999998,-0.34714540839195251,
0.73250000000000004,-0.34755408763885498,
0.73499999999999999,-0.34784257411956787,
0.73750000000000004,-0.34757813811302185,
0.73999999999999999,-0.34692904353141785,
0.74250000000000005,-0.34587126970291138,
0.745,-0.34262579679489136,
0.74750000000000005,-0.34055829048156738,
0.75,-0.33837062120437622,
0.75249999999999995,-0.3361588716506958,
0.755,-0.33226430416107178,
0.75749999999999995,-0.3307497501373291,
0.76000000000000001,-0.32961985468864441,
0.76249999999999996,-0.32885056734085083,
0.76500000000000001,-0.32827359437942505,
0.76749999999999996,-0.32829761505126953,
0.77000000000000002,-0.32841783761978149,
0.77249999999999996,-0.3285139799118042,
0.77500000000000002,-0.32848995923995972,
0.77749999999999997,-0.32824954390525818,
0.78000000000000003,-0.32784086465835571,
0.78249999999999997,-0.32723984122276306,
0.78500000000000003,-0.32519638538360596,
0.78749999999999998,-0.3236578106880188,
0.79000000000000004,-0.32168647646903992,
0.79249999999999998,-0.31916221976280212,
0.79500000000000004,-0.31235873699188232,
0.79749999999999999,-0.30817568302154541,
0.80000000000000004,-0.30363202095031738,
0.80249999999999999,-0.29896816611289978,
0.80500000000000005,-0.29057800769805908,
0.8075,-0.28754889965057373,
0.81000000000000005,-0.28581798076629639,
0.8125,-0.28555354475975037,
0.81499999999999995,-0.29007315635681152,
0.8175,-0.29471299052238464,
0.81999999999999995,-0.30065101385116577,
0.82250000000000001,-0.30747851729393005,
0.82499999999999996,-0.32211920619010925,
0.82750000000000001,-0.32901883125305176,
0.82999999999999996,-0.33517321944236755,
0.83250000000000002,-0.34036597609519958,
0.83499999999999996,-0.3476262092590332,
0.83750000000000002,-0.3499581515789032,
0.83999999999999997,-0.35173714160919189,
0.84250000000000003,-0.35327574610710144,
0.84499999999999997,-0.35680970549583435,
0.84750000000000003,-0.35909354686737061,
0.84999999999999998,-0.36173802614212036,
0.85250000000000004,-0.36455076932907104,
0.85499999999999998,-0.36919057369232178,
0.85750000000000004,-0.37022432684898376,
0.85999999999999999,-0.369911789894104,
0.86250000000000004,-0.36810874938964844,
0.86499999999999999,-0.36060810089111328,
0.86750000000000005,-0.35596829652786255,
0.87,-0.35188138484954834,
0.87250000000000005,-0.34947735071182251,
0.875,-0.354429692029953,
0.87749999999999995,-0.3637574315071106,
0.88,-0.37832599878311157,
0.88249999999999995,-0.39808732271194458,
0.88500000000000001,-0.44951003789901733,
0.88749999999999996,-0.4778057336807251,
0.89000000000000001,-0.5045628547668457,
0.89249999999999996,-0.5268484354019165,
0.89500000000000002,-0.54516732692718506,
0.89749999999999996,-0.53502225875854492,
0.90000000000000002,-0.50852954387664795,
0.90249999999999997,-0.46393436193466187,
0.90500000000000003,-0.31853717565536499,
0.90749999999999997,-0.21992287039756775,
0.91000000000000003,-0.10786990821361542,
0.91249999999999998,0.013005932793021202,
0.91500000000000004,0.2567048966884613,
0.91749999999999998,0.36541622877120972,
0.92000000000000004,0.45561632513999939,
0.92249999999999999,0.5207902193069458,
0.92500000000000004,0.55730783939361572,
0.92749999999999999,0.5245165228843689,
0.93000000000000005,0.45910221338272095,
0.9325,0.3652479350566864,
0.93500000000000005,0.11940936744213104,
0.9375,-0.01584271714091301,
0.93999999999999995,-0.1476089209318161,
0.9425,-0.26805204153060913,
0.94499999999999995,-0.45179387927055359,
0.94750000000000001,-0.50901037454605103,
0.94999999999999996,-0.54290753602981567,
0.95250000000000001,-0.55579328536987305,
0.95499999999999996,-0.53480589389801025,
0.95750000000000002,-0.51045280694961548,
0.95999999999999996,-0.48299849033355713,
0.96250000000000002,-0.4561692476272583,
0.96499999999999997,-0.41376173496246338,
0.96750000000000003,-0.4001307487487793,
0.96999999999999997,-0.39130789041519165,
0.97250000000000003,-0.38628339767456055,
0.97499999999999998,-0.38262924551963806,
0.97750000000000004,-0.38164359331130981,
0.97999999999999998,-0.38010498881340027,
0.98250000000000004,-0.37760478258132935,
0.98499999999999999,-0.36967140436172485,
0.98750000000000004,-0.36471903324127197,
0.98999999999999999,-0.35962244868278503,
0.99250000000000005,-0.35474222898483276,
0.995,-0.34649631381034851,
0.99750000000000005,-0.34329891204833984,
1,-0.34070253372192383,88.607589721679688
1.0024999999999999,-0.33851486444473267,
1.0049999999999999,-0.33476454019546509,
1.0075000000000001,-0.33291339874267578,
1.01,-0.33094209432601929,
1.0125,-0.32880246639251709,
1.0149999999999999,-0.32401841878890991,
1.0175000000000001,-0.32144606113433838,
1.02,-0.31882566213607788,
1.0225,-0.316205233335495,
1.0249999999999999,-0.31103652715682983,
1.0275000000000001,-0.30851227045059204,
1.03,-0.30606013536453247,
1.0325,-0.3036080002784729,
1.0349999999999999,-0.29879987239837646,
1.0375000000000001,-0.29639583826065063,
1.04,-0.29401582479476929,
1.0425,-0.29163581132888794,
1.0449999999999999,-0.28680366277694702,
1.0475000000000001,-0.28432747721672058,
1.05,-0.28175514936447144,
1.0525,-0.27906259894371033,
1.0549999999999999,-0.27310055494308472,
1.0575000000000001,-0.2697589099407196,
1.0600000000000001,-0.26617687940597534,
1.0625,-0.2623063325881958,
1.0649999999999999,-0.25391620397567749,
1.0674999999999999,-0.24939656257629395,
1.0700000000000001,-0.24473270773887634,
1.0725,-0.2399245947599411,
1.075,-0.22985160350799561,
1.0774999999999999,-0.22456268966197968,
1.0800000000000001,-0.21905741095542908,
1.0825,-0.21333575248718262,
1.085,-0.20112316310405731,
1.0874999999999999,-0.1947043389081955,
1.0900000000000001,-0.18809318542480469,
1.0925,-0.18138587474822998,
1.095,-0.16804337501525879,
1.0974999999999999,-0.1616005152463913,
1.1000000000000001,-0.15544614195823669,
1.1025,-0.14960429072380066,
1.105,-0.13909856975078583,
1.1074999999999999,-0.13443470001220703,
1.1100000000000001,-0.13013145327568054,
1.1125,-0.12611667811870575,
1.115,-0.11878430843353271,
1.1174999999999999,-0.11539459228515625,
1.1200000000000001,-0.1121731624007225,
1.1225000000000001,-0.1090959757566452,
1.125,-0.10359068959951401,
1.1274999999999999,-0.10128279775381088,
1.1299999999999999,-0.099431678652763367,
1.1325000000000001,-0.098085403442382812,
1.135,-0.097460351884365082,
1.1375,-0.098397932946681976,
1.1399999999999999,-0.10036925971508026,
1.1425000000000001,-0.10342240333557129,
1.145,-0.11339922994375229,
1.1475,-0.12044310569763184,
1.1499999999999999,-0.12888133525848389,
1.1525000000000001,-0.13868987560272217,
1.155,-0.16191303730010986,
1.1575,-0.17487089335918427,
1.1599999999999999,-0.1883576363325119,
1.1625000000000001,-0.20203670859336853,
1.165,-0.22869765758514404,
1.1675,-0.24112662672996521,
1.1699999999999999,-0.25273820757865906,
1.1725000000000001,-0.26338815689086914,
1.175,-0.28199553489685059,
1.1775,-0.29009720683097839,
1.1799999999999999,-0.2975497841835022,
1.1825000000000001,-0.30452153086662292,
1.1850000000000001,-0.31731110811233521,
1.1875,-0.32320103049278259,
1.1899999999999999,-0.32873034477233887,
1.1924999999999999,-0.33382695913314819,
1.1950000000000001,-0.34252962470054626,
1.1975,-0.3460395336151123,
1.2,-0.34894844889640808,
1.2024999999999999,-0.35132846236228943,
1.2050000000000001,-0.35474222898483276,
1.2075,-0.35594424605369568,
1.21,-0.35692989826202393,
1.2124999999999999,-0.35772323608398438,
1.2150000000000001,-0.35885316133499146,
1.2175,-0.35914164781570435,
1.22,-0.3591897189617157,
1.2224999999999999,-0.35897335410118103,
1.2250000000000001,-0.35762709379196167,
1.2275,-0.35659334063529968,
1.23,-0.3553672730922699,
1.2324999999999999,-0.35411715507507324,
1.2350000000000001,-0.35195350646972656,
1.2375,-0.35123229026794434,
1.24,-0.35087168216705322,
1.2424999999999999,-0.35089573264122009,
1.2450000000000001,-0.35192948579788208,
1.2475000000000001,-0.35279494524002075,
1.25,-0.35370847582817078,
1.2524999999999999,-0.35457393527030945,
1.2549999999999999,-0.35572788119316101,
1.2575000000000001,-0.35580000281333923,
1.26,-0.35553556680679321,
1.2625,-0.35488647222518921,
1.2649999999999999,-0.35267472267150879,
1.2675000000000001,-0.35125634074211121,
1.27,-0.34978985786437988,
1.2725,-0.34834742546081543,
1.2749999999999999,-0.34589529037475586,
1.2775000000000001,-0.34500581026077271,
1.28,-0.34438073635101318,
1.2825,-0.34397205710411072,
1.2849999999999999,-0.34356337785720825,
1.2875000000000001,-0.34341913461685181,
1.29,-0.34313064813613892,
1.2925,-0.34262579679489136,
1.2949999999999999,-0.3407265841960907,
1.2975000000000001,-0.33928415179252625,
1.3,-0.33757728338241577,
1.3025,-0.33567807078361511,
1.3049999999999999,-0.33187967538833618,
1.3075000000000001,-0.33022087812423706,
1.3100000000000001,-0.32892268896102905,
1.3125,-0.32800912857055664,
1.3149999999999999,-0.32740813493728638,
1.3174999999999999,-0.32760044932365417,
1.3200000000000001,-0.32798510789871216,
1.3225,-0.32839378714561462,
1.325,-0.32865822315216064,
1.3274999999999999,-0.32827359437942505,
1.3300000000000001,-0.32743215560913086,
1.3325,-0.32613396644592285,
1.335,-0.3222634494304657,
1.3374999999999999,-0.31985938549041748,
1.3400000000000001,-0.31735917925834656,
1.3425,-0.31485897302627563,
1.345,-0.31045955419540405,
1.3474999999999999,-0.30877670645713806,
1.3500000000000001,-0.30752658843994141,
1.3525,-0.30670922994613647,
1.355,-0.30610820651054382,
1.3574999999999999,-0.30613225698471069,
1.3600000000000001,-0.30618032813072205,
1.3625,-0.30613225698471069,
1.365,-0.30526679754257202,
1.3674999999999999,-0.30435323715209961,
1.3700000000000001,-0.30315122008323669,
1.3725000000000001,-0.30168473720550537,
1.375,-0.29855948686599731,
1.3774999999999999,-0.29716512560844421,
1.3799999999999999,-0.296059250831604,
1.3825000000000001,-0.29533803462982178,
1.385,-0.29516977071762085,
1.3875,-0.29565057158470154,
1.3899999999999999,-0.29639583826065063,
1.3925000000000001,-0.29812675714492798,
1.395,-0.29884797334671021,
1.3975,-0.29932877421379089,
1.3999999999999999,-0.29952108860015869,
1.4025000000000001,-0.29877585172653198,
1.405,-0.29788634181022644,
1.4075,-0.29663622379302979,
1.4099999999999999,-0.29504954814910889,
1.4125000000000001,-0.29098671674728394,
1.415,-0.28855860233306885,
1.4175,-0.28589010238647461,
1.4199999999999999,-0.28302928805351257,
1.4225000000000001,-0.27706724405288696,
1.425,-0.27418237924575806,
1.4275,-0.2715378999710083,
1.4299999999999999,-0.26923000812530518,
1.4325000000000001,-0.2660326361656189,
1.4350000000000001,-0.26521524786949158,
1.4375,-0.26492676138877869,
1.4399999999999999,-0.26504695415496826,
1.4424999999999999,-0.26610475778579712,
1.4450000000000001,-0.26675385236740112,
1.4475,-0.26725870370864868,
1.45,-0.26747506856918335,
1.4524999999999999,-0.26639324426651001,
1.4550000000000001,-0.26485463976860046,
1.4575,-0.26257079839706421,
1.46,-0.25944551825523376,
1.4624999999999999,-0.25088709592819214,
1.4650000000000001,-0.24564623832702637,
1.4675,-0.240020751953125,
1.47,-0.23427507281303406,
1.4724999999999999,-0.22362510859966278,
1.4750000000000001,-0.21934589743614197,
1.4775,-0.21617254614830017,
1.48,-0.21429738402366638,
1.4824999999999999,-0.21477818489074707,
1.4850000000000001,-0.21711012721061707,
1.4875,-0.22059600055217743,
1.49,-0.22501945495605469,
1.4924999999999999,-0.23006796836853027,
1.4950000000000001,-0.24088621139526367,
1.4975000000000001,-0.24612705409526825,
1.5,-0.25093516707420349,
1.5024999999999999,-0.25889259576797485,
1.5049999999999999,-0.26199382543563843,
1.5075000000000001,-0.26456615328788757,
1.51,-0.26672980189323425,
1.5125,-0.27028781175613403,
1.5149999999999999,-0.27187448740005493,
1.5175000000000001,-0.27341306209564209,
1.52,-0.27485549449920654,
1.5225,-0.27697107195854187,
1.5249999999999999,-0.27725955843925476,
1.5275000000000001,-0.27670663595199585,
1.53,-0.27511996030807495,
1.5325,-0.26872515678405762,
1.5349999999999999,-0.26425361633300781,
1.5375000000000001,-0.25956571102142334,
1.54,-0.25543075799942017,
1.5425,-0.25254589319229126,
1.5449999999999999,-0.25588750839233398,
1.5475000000000001,-0.26355645060539246,
1.55,-0.2761056125164032,
1.5525,-0.31558018922805786,
1.5549999999999999,-0.34096699953079224,
1.5575000000000001,-0.36803662776947021,
1.5600000000000001,-0.39455336332321167,
1.5625,-0.43477317690849304,
1.5649999999999999,-0.44234594702720642,
1.5674999999999999,-0.43741762638092041,
1.5700000000000001,-0.41731974482536316,
1.5725,-0.3238501250743866,
1.575,-0.24893979728221893,
1.5774999999999999,-0.1561913937330246,
1.5800000000000001,-0.048081081360578537,
1.5825,0.19708435237407684,
1.585,0.32231152057647705,
1.5874999999999999,0.43977361917495728,
1.5900000000000001,0.54189783334732056,
1.5925,0.67229372262954712,
1.595,0.68996351957321167,
1.5974999999999999,0.67234182357788086,
1.6000000000000001,0.61988532543182373,
1.6025,0.42575797438621521,
1.605,0.2974536120891571,
1.6074999999999999,0.15982151031494141,
1.6100000000000001,0.022165378555655479,
1.6125,-0.21973054111003876,
1.615,-0.31132501363754272,
1.6174999999999999,-0.37871062755584717,
1.6200000000000001,-0.42150279879570007,
1.6225000000000001,-0.44239401817321777,
1.625,-0.42881113290786743,
1.6274999999999999,-0.40594857931137085,
1.6299999999999999,-0.37866255640983582,
1.6325000000000001,-0.32630226016044617,
1.635,-0.3060360848903656,
1.6375,-0.29091459512710571,
1.6399999999999999,-0.28060120344161987,
1.6425000000000001,-0.27035993337631226,
1.645,-0.26788374781608582,
1.6475,-0.26564797759056091,
1.6499999999999999,-0.2629554271697998,
1.6525000000000001,-0.25514227151870728,
1.655,-0.25021395087242126,
1.6575,-0.24502119421958923,
1.6599999999999999,-0.23987650871276855,
1.6625000000000001,-0.2306930273771286,
1.665,-0.2268705815076828,
1.6675,-0.22350490093231201,
1.6699999999999999,-0.22052387893199921,
1.6725000000000001,-0.21521091461181641,
1.675,-0.21273474395275116,
1.6775,-0.21033069491386414,
1.6799999999999999,-0.20802280306816101,
1.6825000000000001,-0.203743577003479,
1.6850000000000001,-0.20184437930583954,
1.6875,-0.20006537437438965,
1.6899999999999999,-0.19840657711029053,
1.6924999999999999,-0.19520919024944305,
1.6950000000000001,-0.19350230693817139,
1.6975,-0.19167523086071014,
1.7,-0.18963178992271423,
1.7024999999999999,-0.18472751975059509,
1.7050000000000001,-0.18181860446929932,
1.7075,-0.17862121760845184,
1.71,-0.17515937983989716,
1.7124999999999999,-0.1675625741481781,
1.7150000000000001,-0.16361992061138153,
1.7175,-0.15970131754875183,
1.72,-0.15590290725231171,
1.7224999999999999,-0.14902731776237488,
1.7250000000000001,-0.1460222452878952,
1.7275,-0.14328162372112274,
1.73,-0.14073333144187927,
1.7324999999999999,-0.13580501079559326,
1.7350000000000001,-0.13308843970298767,
1.7375,-0.13005933165550232,
1.74,-0.12657344341278076,
1.7424999999999999,-0.11806309223175049,
1.7450000000000001,-0.11308670043945312,
1.7475000000000001,-0.10772566497325897,
1.75,-0.10205209255218506,
1.7524999999999999,-0.090176068246364594,
1.7549999999999999,-0.08411785215139389,
1.7575000000000001,-0.077987514436244965,
1.76,-0.071785055100917816,
1.7625,-0.059019528329372406,
1.7649999999999999,-0.052384339272975922,
1.7675000000000001,-0.045508742332458496,
1.77,-0.038464866578578949,
1.7725,-0.024040540680289268,
1.7749999999999999,-0.016852419823408127,
1.7775000000000001,-0.0098566217347979546,
1.78,-0.0031973919831216335,
1.7825,0.008822878822684288,
1.7849999999999999,0.014039675705134869,
1.7875000000000001,0.018703540787100792,
1.79,0.022814473137259483,
1.7925,0.029569864273071289,
1.7949999999999999,0.032286446541547775,
1.7975000000000001,0.034570299088954926,
1.8,0.036373339593410492,
1.8025,0.03829658031463623,
1.8049999999999999,0.03812829777598381,
1.8075000000000001,0.037046473473310471,
1.8100000000000001,0.034858785569667816,
1.8125,0.026781162247061729,
1.8149999999999999,0.020771026611328125,
1.8174999999999999,0.013462702743709087,
1.8200000000000001,0.0049523515626788139,
1.8225,-0.01521766185760498,
1.825,-0.026540756225585938,
1.8274999999999999,-0.038512945175170898,
1.8300000000000001,-0.050917863845825195,
1.8325,-0.076569125056266785,
1.835,-0.08952697366476059,
1.8374999999999999,-0.1023886650800705,
1.8400000000000001,-0.11500994861125946,
1.8425,-0.13893029093742371,
1.845,-0.14991681277751923,
1.8474999999999999,-0.16008596122264862,
1.8500000000000001,-0.16936561465263367,
1.8525,-0.18511216342449188,
1.855,-0.19165119528770447,
1.8574999999999999,-0.19742092490196228,
1.8600000000000001,-0.20254155993461609,
1.8625,-0.21136443316936493,
1.865,-0.21525900065898895,
1.8674999999999999,-0.21886508166790009,
1.8700000000000001,-0.22218267619609833,
1.8725000000000001,-0.22788028419017792,
1.875,-0.23011605441570282,
1.8774999999999999,-0.23189505934715271,
1.8799999999999999,-0.23316919803619385,
1.8825000000000001,-0.23437123000621796,
1.885,-0.2344193160533905,
1.8875,-0.23425102233886719,
1.8899999999999999,-0.23393850028514862,
1.8925000000000001,-0.23331344127655029,
1.895,-0.23309707641601562,
1.8975,-0.23297688364982605,
1.8999999999999999,-0.23295283317565918,
1.9025000000000001,-0.23304900527000427,
1.905,-0.23309707641601562,
1.9075,-0.2331211268901825,
1.9099999999999999,-0.23304900527000427,
1.9125000000000001,-0.23276051878929138,
1.915,-0.23252010345458984,
1.9175,-0.23225566744804382,
1.9199999999999999,-0.23196718096733093,
1.9225000000000001,-0.23139020800590515,
1.925,-0.23110172152519226,
1.9275,-0.23081323504447937,
1.9299999999999999,-0.23052474856376648,
1.9325000000000001,-0.22992372512817383,
1.9350000000000001,-0.22958716750144958,
1.9375,-0.2292025089263916,
1.9399999999999999,-0.22874574363231659,
1.9424999999999999,-0.22759179770946503,
1.9450000000000001,-0.22689461708068848,
1.9475,-0.22607724368572235,
1.95,-0.225187748670578,
1.9524999999999999,-0.22316834330558777,
1.9550000000000001,-0.2221105545759201,
1.9575,-0.22102873027324677,
1.96,-0.21994690597057343,
1.9624999999999999,-0.21802365779876709,
1.9650000000000001,-0.21720628440380096,
1.9675,-0.21655718982219696,
1.97,-0.2160523384809494,
1.9724999999999999,-0.21552345156669617,
1.9750000000000001,-0.21545132994651794,
1.9775,-0.2154032438993454,
1.98,-0.21535515785217285,
1.9824999999999999,-0.21485030651092529,
1.9850000000000001,-0.21427333354949951,
1.9875,-0.21340787410736084,
1.99,-0.21227797865867615,
1.9924999999999999,-0.20929694175720215,
1.9950000000000001,-0.20759007334709167,
1.9975000000000001,-0.20585915446281433,
2,-0.20420035719871521,77.922080993652344
2.0024999999999999,-0.20145973563194275,
2.0049999999999999,-0.20042598247528076,
2.0074999999999998,-0.19963264465332031,
2.0099999999999998,-0.19898355007171631,
2.0125000000000002,-0.19778153300285339,
2.0150000000000001,-0.19698819518089294,
2.0175000000000001,-0.19595444202423096,
2.02,-0.1946081817150116,
2.0225,-0.19117037951946259,
2.0249999999999999,-0.18922309577465057,
2.0274999999999999,-0.18734793365001678,
2.0299999999999998,-0.18571317195892334,
2.0325000000000002,-0.18364569544792175,
2.0350000000000001,-0.18338124454021454,
2.0375000000000001,-0.18359760940074921,
2.04,-0.18422266840934753,
2.0425,-0.18595358729362488,
2.0449999999999999,-0.18672287464141846,
2.0474999999999999,-0.18720369040966034,
2.0499999999999998,-0.18732389807701111,
2.0525000000000002,-0.18648247420787811,
2.0550000000000002,-0.18566510081291199,
2.0575000000000001,-0.18477559089660645,
2.0600000000000001,-0.183982253074646,
2.0625,-0.18302063643932343,
2.0649999999999999,-0.1829485148191452,
2.0674999999999999,-0.18314084410667419,
2.0699999999999998,-0.18350145220756531,
2.0724999999999998,-0.18429479002952576,
2.0750000000000002,-0.1845351904630661,
2.0775000000000001,-0.18455922603607178,
2.0800000000000001,-0.18439094722270966,
2.0825,-0.18338124454021454,
2.085,-0.18261194229125977,
2.0874999999999999,-0.18167436122894287,
2.0899999999999999,-0.1806165874004364,
2.0924999999999998,-0.17790000140666962,
2.0950000000000002,-0.17621716856956482,
2.0975000000000001,-0.17431795597076416,
2.1000000000000001,-0.1722264289855957,
2.1025,-0.16777893900871277,
2.105,-0.16561529040336609,
2.1074999999999999,-0.16369204223155975,
2.1099999999999999,-0.16210536658763885,
2.1124999999999998,-0.16015808284282684,
2.1150000000000002,-0.15979747474193573,
2.1175000000000002,-0.15972535312175751,
2.1200000000000001,-0.15984556078910828,
2.1225000000000001,-0.16013404726982117,
2.125,-0.1601099967956543,
2.1274999999999999,-0.1599176824092865,
2.1299999999999999,-0.15955707430839539,
2.1324999999999998,-0.1584271639585495,
2.1349999999999998,-0.15765786170959473,
2.1375000000000002,-0.15676836669445038,
2.1400000000000001,-0.15568654239177704,
2.1425000000000001,-0.15234491229057312,
2.145,-0.149844691157341,
2.1475,-0.14657518267631531,
2.1499999999999999,-0.14251232147216797,
2.1524999999999999,-0.13215085864067078,
2.1549999999999998,-0.12618879973888397,
2.1575000000000002,-0.12008249759674072,
2.1600000000000001,-0.11421661078929901,
2.1625000000000001,-0.10469655692577362,
2.165,-0.10171552747488022,
2.1675,-0.10027309507131577,
2.1699999999999999,-0.10044138133525848,
2.1724999999999999,-0.10556201636791229,
2.1749999999999998,-0.11015375703573227,
2.1775000000000002,-0.11568307876586914,
2.1800000000000002,-0.12181341648101807,
2.1825000000000001,-0.13450682163238525,
2.1850000000000001,-0.14044484496116638,
2.1875,-0.14580588042736053,
2.1899999999999999,-0.15049378573894501,
2.1924999999999999,-0.15770594775676727,
2.1949999999999998,-0.16039848327636719,
2.1974999999999998,-0.16268233954906464,
2.2000000000000002,-0.16474983096122742,
2.2025000000000001,-0.16866843402385712,
2.2050000000000001,-0.1706397533416748,
2.2075,-0.17253896594047546,
2.21,-0.17419776320457458,
2.2124999999999999,-0.17571231722831726,
2.2149999999999999,-0.17501513659954071,
2.2174999999999998,-0.17309188842773438,
2.2200000000000002,-0.16991853713989258,
2.2225000000000001,-0.16080717742443085,
2.2250000000000001,-0.15599906444549561,
2.2275,-0.15215258300304413,
2.23,-0.15032550692558289,
2.2324999999999999,-0.15676836669445038,
2.2349999999999999,-0.16664902865886688,
2.2374999999999998,-0.18140992522239685,
2.2400000000000002,-0.20083467662334442,
2.2425000000000002,-0.24970909953117371,
2.2450000000000001,-0.27579307556152344,
2.2475000000000001,-0.2997855544090271,
2.25,-0.31894585490226746,
2.2524999999999999,-0.33048531413078308,
2.2549999999999999,-0.31707069277763367,
2.2574999999999998,-0.28752487897872925,
2.2599999999999998,-0.24018904566764832,
2.2625000000000002,-0.09056071937084198,
2.2650000000000001,0.0093998517841100693,
2.2675000000000001,0.12217402458190918,
2.27,0.24297773838043213,
2.2725,0.48335909843444824,
2.2749999999999999,0.58844029903411865,
2.2774999999999999,0.67361593246459961,
2.2799999999999998,0.73239505290985107,
2.2825000000000002,0.75314205884933472,
2.2850000000000001,0.71198463439941406,
2.2875000000000001,0.6387331485748291,
2.29,0.53831577301025391,
2.2925,0.28538525104522705,
2.2949999999999999,0.15039762854576111,
2.2974999999999999,0.021444162353873253,
2.2999999999999998,-0.093878313899040222,
2.3025000000000002,-0.26290735602378845,
2.3050000000000002,-0.31202217936515808,
2.3075000000000001,-0.33834657073020935,
2.3100000000000001,-0.34488558769226074,
2.3125,-0.31625330448150635,
2.3149999999999999,-0.29079437255859375,
2.3174999999999999,-0.26379686594009399,
2.3199999999999998,-0.23855428397655487,
2.3224999999999998,-0.20073851943016052,
2.3250000000000002,-0.18917500972747803,
2.3275000000000001,-0.18177053332328796,
2.3300000000000001,-0.17732302844524384,
2.3325,-0.17229855060577393,
2.335,-0.16967813670635223,
2.3374999999999999,-0.16619226336479187,
2.3399999999999999,-0.1616966724395752,
2.3424999999999998,-0.15063802897930145,
2.3450000000000002,-0.14491638541221619,
2.3475000000000001,-0.13967554271221161,
2.3500000000000001,-0.13522803783416748,
2.3525,-0.12929002940654755,
2.355,-0.12767931818962097,
2.3574999999999999,-0.12664556503295898,
2.3599999999999999,-0.12592434883117676,
2.3624999999999998,-0.12421747297048569,
2.3650000000000002,-0.12282311916351318,
2.3675000000000002,-0.12094795703887939,
2.3700000000000001,-0.11859198659658432,
2.3725000000000001,-0.11289437860250473,
2.375,-0.10984122753143311,
2.3774999999999999,-0.10683616250753403,
2.3799999999999999,-0.10395129770040512,
2.3824999999999998,-0.09875854104757309,
2.3849999999999998,-0.096402570605278015,
2.3875000000000002,-0.09414275735616684,
2.3900000000000001,-0.091906987130641937,
2.3925000000000001,-0.087339282035827637,
2.395,-0.084959268569946289,
2.3975,-0.082555219531059265,
2.3999999999999999,-0.080127120018005371,
2.4024999999999999,-0.075367093086242676,
2.4049999999999998,-0.073059201240539551,
2.4075000000000002,-0.070751309394836426,
2.4100000000000001,-0.068395338952541351,
2.4125000000000001,-0.06325066089630127,
2.415,-0.060269635170698166,
2.4175,-0.056952040642499924,
2.4199999999999999,-0.053249798715114594,
2.4224999999999999,-0.044715404510498047,
2.4249999999999998,-0.040003459900617599,
2.4275000000000002,-0.035051107406616211,
2.4300000000000002,-0.030002593994140625,
2.4325000000000001,-0.019809406250715256,
2.4350000000000001,-0.014736851677298546,
2.4375,-0.0097364187240600586,
2.4399999999999999,-0.0047119460068643093,
2.4424999999999999,0.0055052838288247585,
2.4449999999999998,0.010842284187674522,
2.4474999999999998,0.016419690102338791,
2.4500000000000002,0.022261541336774826,
2.4525000000000001,0.034714542329311371,
2.4550000000000001,0.04120548814535141,
2.4575,0.047816634178161621,
2.46,0.054427783936262131,
2.4624999999999999,0.067145228385925293,
2.4649999999999999,0.073035165667533875,
2.4674999999999998,0.078492365777492523,
2.4700000000000002,0.083420678973197937,
2.4725000000000001,0.09164254367351532,
2.4750000000000001,0.094912052154541016,
2.4775,0.09767671674489975,
2.48,0.10000865161418915,
2.4824999999999999,0.10359068959951401,
2.4849999999999999,0.10491292178630829,
2.4874999999999998,0.10589858144521713,
2.4900000000000002,0.10647555440664291,
2.4925000000000002,0.10592262446880341,
2.4950000000000001,0.10440807044506073,
2.4975000000000001,0.10178764909505844,
2.5,0.097917124629020691,
2.5024999999999999,0.085848771035671234,
2.5049999999999999,0.077602863311767578,
2.5074999999999998,0.067986652255058289,
2.5099999999999998,0.057168405503034592,
2.5125000000000002,0.032911501824855804,
2.5150000000000001,0.020049810409545898,
2.5175000000000001,0.0070679187774658203,
2.52,-0.0057937703095376492,
2.5225,-0.030363202095031738,
2.5249999999999999,-0.041806500405073166,
2.5274999999999999,-0.052648782730102539,
2.5299999999999998,-0.062841974198818207,
2.5325000000000002,-0.08132915198802948,
2.5350000000000001,-0.089647173881530762,
2.5375000000000001,-0.097412273287773132,
2.54,-0.1046244353055954,
2.5425,-0.1175822839140892,
2.5449999999999999,-0.12337605655193329,
2.5474999999999999,-0.12876114249229431,
2.5499999999999998,-0.13378560543060303,
2.5525000000000002,-0.14280080795288086,
2.5550000000000002,-0.14679154753684998,
2.5575000000000001,-0.15039762854576111,
2.5600000000000001,-0.15357097983360291,
2.5625,-0.15845119953155518,
2.5649999999999999,-0.1601099967956543,
2.5674999999999999,-0.16123990714550018,
2.5699999999999998,-0.16188900172710419,
2.5724999999999998,-0.16208133101463318,
2.5750000000000002,-0.16186496615409851,
2.5775000000000001,-0.16162455081939697,
2.5800000000000001,-0.16145627200603485,
2.5825,-0.16174475848674774,
2.585,-0.16227364540100098,
2.5874999999999999,-0.1629948616027832,
2.5899999999999999,-0.16386032104492188,
2.5924999999999998,-0.16559123992919922,
2.5950000000000002,-0.16626438498497009,
2.5975000000000001,-0.16669711470603943,
2.6000000000000001,-0.16684135794639587,
2.6025,-0.16631245613098145,
2.605,-0.16575953364372253,
2.6074999999999999,-0.16513447463512421,
2.6099999999999999,-0.16455750167369843,
2.6124999999999998,-0.16371607780456543,
2.6150000000000002,-0.16352376341819763,
2.6175000000000002,-0.16345164179801941,
2.6200000000000001,-0.16347567737102509,
2.6225000000000001,-0.16349971294403076,
2.625,-0.16337952017784119,
2.6274999999999999,-0.16313910484313965,
2.6299999999999999,-0.16275446116924286,
2.6324999999999998,-0.16176879405975342,
2.6349999999999998,-0.16121587157249451,
2.6375000000000002,-0.16068696975708008,
2.6400000000000001,-0.16020616888999939,
2.6425000000000001,-0.15931665897369385,
2.645,-0.15888392925262451,
2.6475,-0.15837907791137695,
2.6499999999999999,-0.15782615542411804,
2.6524999999999999,-0.15635967254638672,
2.6549999999999998,-0.15547017753124237,
2.6575000000000002,-0.15453259646892548,
2.6600000000000001,-0.15354692935943604,
2.6625000000000001,-0.15162369608879089,
2.665,-0.150686115026474,
2.6675,-0.14982065558433533,
2.6699999999999999,-0.14897923171520233,
2.6724999999999999,-0.14736852049827576,
2.6749999999999998,-0.14659921824932098,
2.6775000000000002,-0.14580588042736053,
2.6800000000000002,-0.14503657817840576,
2.6825000000000001,-0.14344990253448486,
2.6850000000000001,-0.14265656471252441,
2.6875,-0.14183919131755829,
2.6899999999999999,-0.14104585349559784,
2.6924999999999999,-0.13938705623149872,
2.6949999999999998,-0.13852159678936005,
2.6974999999999998,-0.13768017292022705,
2.7000000000000002,-0.13683876395225525,
2.7025000000000001,-0.13522803783416748,
2.7050000000000001,-0.13448278605937958,
2.7075,-0.13378560543060303,
2.71,-0.13316056132316589,
2.7124999999999999,-0.13212680816650391,
2.7149999999999999,-0.13169407844543457,
2.7174999999999998,-0.13133347034454346,
2.7200000000000002,-0.13104498386383057,
2.7225000000000001,-0.1306363046169281,
2.7250000000000001,-0.13049206137657166,
2.7275,-0.13037185370922089,
2.73,-0.13022761046886444,
2.7324999999999999,-0.12969872355461121,
2.7349999999999999,-0.12921790778636932,
2.7374999999999998,-0.128592848777771,
2.7400000000000002,-0.12779951095581055,
2.7425000000000002,-0.12587627768516541,
2.7450000000000001,-0.12491464614868164,
2.7475000000000001,-0.12407322973012924,
2.75,-0.12344817817211151,
2.7524999999999999,-0.1230875700712204,
2.7549999999999999,-0.12335201352834702,
2.7574999999999998,-0.12378474324941635,
2.7599999999999998,-0.12428959459066391,
2.7625000000000002,-0.12474636733531952,
2.7650000000000001,-0.12440979480743408,
2.7675000000000001,-0.12349625676870346,
2.77,-0.12202978134155273,
2.7725,-0.11770248413085938,
2.7749999999999999,-0.11515419185161591,
2.7774999999999999,-0.11265397071838379,
2.7799999999999998,-0.11041820049285889,
2.7825000000000002,-0.10748525708913803,
2.7850000000000001,-0.10700444877147675,
2.7875000000000001,-0.10719677060842514,
2.79,-0.10796606540679932,
2.7925,-0.11041820049285889,
2.7949999999999999,-0.11166831105947495,
2.7974999999999999,-0.11260589212179184,
2.7999999999999998,-0.11299054324626923,
2.8025000000000002,-0.111427903175354,
2.8050000000000002,-0.1092882975935936,
2.8075000000000001,-0.1062111109495163,
2.8100000000000001,-0.10226845741271973,
2.8125,-0.092363759875297546,
2.8149999999999999,-0.086810395121574402,
2.8174999999999999,-0.081160865724086761,
2.8199999999999998,-0.075727701187133789,
2.8224999999999998,-0.06673654168844223,
2.8250000000000002,-0.063755512237548828,
2.8275000000000001,-0.06212075799703598,
2.8300000000000001,-0.06200055405497551,
2.8325,-0.066592298448085785,
2.835,-0.071184039115905762,
2.8374999999999999,-0.07704993337392807,
2.8399999999999999,-0.083853408694267273,
2.8424999999999998,-0.098806619644165039,
2.8450000000000002,-0.10613898932933807,
2.8475000000000001,-0.11289437860250473,
2.8500000000000001,-0.11876027286052704,
2.8525,-0.12731871008872986,
2.855,-0.12996315956115723,
2.8574999999999999,-0.13169407844543457,
2.8599999999999999,-0.13270378112792969,
2.8624999999999998,-0.13340096175670624,
2.8650000000000002,-0.13347308337688446,
2.8675000000000002,-0.13344904780387878,
2.8700000000000001,-0.13332884013652802,
2.8725000000000001,-0.13227105140686035,
2.875,-0.13097286224365234,
2.8774999999999999,-0.12895345687866211,
2.8799999999999999,-0.12623688578605652,
2.8824999999999998,-0.11948148906230927,
2.8849999999999998,-0.11640429496765137,
2.8875000000000002,-0.11443297564983368,
2.8900000000000001,-0.11448105424642563,
2.8925000000000001,-0.12402515113353729,
2.895,-0.13484339416027069,
2.8975,-0.15001296997070312,
2.8999999999999999,-0.16919732093811035,
2.9024999999999999,-0.21542727947235107,
2.9049999999999998,-0.23891489207744598,
2.9075000000000002,-0.25946956872940063,
2.9100000000000001,-0.27420639991760254,
2.9125000000000001,-0.27423045039176941,
2.915,-0.25396427512168884,
2.9175,-0.21727840602397919,
2.9199999999999999,-0.16304294764995575,
2.9224999999999999,-0.0030291080474853516,
2.9249999999999998,0.098782584071159363,
2.9275000000000002,0.21011433005332947,
2.9300000000000002,0.32560509443283081,
2.9325000000000001,0.54276329278945923,
2.9350000000000001,0.63046318292617798,
2.9375,0.69544476270675659,
2.9399999999999999,0.73249125480651855,
2.9424999999999999,0.71121537685394287,
2.9449999999999998,0.65289300680160522,
2.9474999999999998,0.5668519139289856,
2.9500000000000002,0.45890986919403076,
2.9525000000000001,0.20783047378063202,
2.9550000000000001,0.081473395228385925,
2.9575,-0.034906864166259766,
2.96,-0.13501167297363281,
2.9624999999999999,-0.27108114957809448,
2.9649999999999999,-0.30497831106185913,
2.9674999999999998,-0.31822463870048523,
2.9700000000000002,-0.31435412168502808,
2.9725000000000001,-0.27341306209564209,
2.9750000000000001,-0.24569432437419891,
2.9775,-0.21836023032665253,
2.98,-0.19422352313995361,
2.9824999999999999,-0.16078314185142517,
2.9849999999999999,-0.15164773166179657,
2.9874999999999998,-0.14647901058197021,
2.9900000000000002,-0.14400283992290497,
2.9925000000000002,-0.14193534851074219,
2.9950000000000001,-0.14042079448699951,
2.9975000000000001,-0.13787250220775604,
3,-0.13419429957866669,76.109939575195312
3.0024999999999999,-0.12440979480743408,
3.0049999999999999,-0.11902471631765366,
3.0074999999999998,-0.1138560026884079,
3.0099999999999998,-0.10916809737682343,
3.0125000000000002,-0.10171552747488022,
3.0150000000000001,-0.098902784287929535,
3.0175000000000001,-0.09654681384563446,
3.02,-0.094455286860466003,
3.0225,-0.090584754943847656,
3.0249999999999999,-0.088565349578857422,
3.0274999999999999,-0.086473822593688965,
3.0299999999999998,-0.084262095391750336,
3.0325000000000002,-0.079670354723930359,
3.0350000000000001,-0.077362462878227234,
3.0375000000000001,-0.075102649629116058,
3.04,-0.072890922427177429,
3.0425,-0.068683825433254242,
3.0449999999999999,-0.066688463091850281,
3.0474999999999999,-0.064741179347038269,
3.0499999999999998,-0.062841974198818207,
3.0525000000000002,-0.058971446007490158,
3.0550000000000002,-0.056928001344203949,
3.0575000000000001,-0.054692231118679047,
3.0600000000000001,-0.052264135330915451,
3.0625,-0.046614609658718109,
3.0649999999999999,-0.043393176048994064,
3.0674999999999999,-0.039931338280439377,
3.0699999999999998,-0.036301217973232269,
3.0724999999999998,-0.02889673039317131,
3.0750000000000002,-0.025266608223319054,
3.0775000000000001,-0.021756689995527267,
3.0800000000000001,-0.018415054306387901,
3.0825,-0.012044310569763184,
3.085,-0.0088469190523028374,
3.0874999999999999,-0.0054572029039263725,
3.0899999999999999,-0.0017790000420063734,
3.0924999999999998,0.0069957971572875977,
3.0950000000000002,0.012212594971060753,
3.0975000000000001,0.018006365746259689,
3.1000000000000001,0.02428094670176506,
3.1025,0.037887893617153168,
3.105,0.04490773007273674,
3.1074999999999999,0.051879487931728363,
3.1099999999999999,0.05858679860830307,
3.1124999999999998,0.070895552635192871,
3.1150000000000002,0.076352760195732117,
3.1175000000000002,0.08132915198802948,
3.1200000000000001,0.085824728012084961,
3.1225000000000001,0.09368598461151123,
3.125,0.097195908427238464,
3.1274999999999999,0.10051350295543671,
3.1299999999999999,0.1036868542432785,
3.1324999999999998,0.10979314893484116,
3.1349999999999998,0.11272609233856201,
3.1375000000000002,0.1155388355255127,
3.1400000000000001,0.11815925687551498,
3.1425000000000001,0.12248655408620834,
3.145,0.12395302951335907,
3.1475,0.1247704029083252,
3.1499999999999999,0.12479444593191147,
3.1524999999999999,0.12181341648101807,
3.1549999999999998,0.11859198659658432,
3.1575000000000002,0.11404832452535629,
3.1600000000000001,0.1008981466293335,
3.1625000000000001,0.092339716851711273,
3.165,0.082555219531059265,
3.1675,0.071664854884147644,
3.1699999999999999,0.047263704240322113,
3.1724999999999999,0.034209690988063812,
3.1749999999999998,0.02091526985168457,
3.1775000000000002,0.0076208515092730522,
3.1800000000000002,-0.0053850812837481499,
3.1825000000000001,-0.029641985893249512,
3.1850000000000001,-0.040532350540161133,
3.1875,-0.050485134124755859,
3.1899999999999999,-0.06748180091381073,
3.1924999999999999,-0.074693962931632996,
3.1949999999999998,-0.081257030367851257,
3.1974999999999998,-0.087339282035827637,
3.2000000000000002,-0.098686419427394867,
3.2025000000000001,-0.10421574115753174,
3.2050000000000001,-0.10974507033824921,
3.2075,-0.1152503490447998,
3.21,-0.12592434883117676,
3.2124999999999999,-0.13087670505046844,
3.2149999999999999,-0.1353963315486908,
3.2174999999999998,-0.13936302065849304,
3.2200000000000002,-0.14270465075969696,
3.2225000000000001,-0.14741659164428711,
3.2250000000000001,-0.14881095290184021,
3.2275,-0.14967641234397888,
3.23,-0.15018126368522644,
3.2324999999999999,-0.15003702044487,
3.2349999999999999,-0.14977256953716278,
3.2374999999999998,-0.14946004748344421,
3.2400000000000002,-0.14883498847484589,
3.2425000000000002,-0.14857053756713867,
3.2450000000000001,-0.14837822318077087,
3.2475000000000001,-0.14818589389324188,
3.25,-0.14799356460571289,
3.2524999999999999,-0.14801761507987976,
3.2549999999999999,-0.14813780784606934,
3.2574999999999998,-0.1484503448009491,
3.2599999999999998,-0.14967641234397888,
3.2625000000000002,-0.15063802897930145,
3.2650000000000001,-0.15174388885498047,
3.2675000000000001,-0.15299400687217712,
3.27,-0.15544614195823669,
3.2725,-0.15640775859355927,
3.2749999999999999,-0.15708088874816895,
3.2774999999999999,-0.15732130408287048,
3.2799999999999998,-0.15660008788108826,
3.2825000000000002,-0.15568654239177704,
3.2850000000000001,-0.15453259646892548,
3.2875000000000001,-0.15328249335289001,
3.29,-0.15097460150718689,
3.2925,-0.15015721321105957,
3.2949999999999999,-0.14960429072380066,
3.2974999999999999,-0.14936387538909912,
3.2999999999999998,-0.14931580424308777,
3.3025000000000002,-0.14948408305644989,
3.3050000000000002,-0.14950811862945557,
3.3075000000000001,-0.14933983981609344,
3.3100000000000001,-0.14823397994041443,
3.3125,-0.14729639887809753,
3.3149999999999999,-0.14616648852825165,
3.3174999999999999,-0.14484426379203796,
3.3199999999999998,-0.14198343455791473,
3.3224999999999998,-0.14054100215435028,
3.3250000000000002,-0.13909856975078583,
3.3275000000000001,-0.1377282589673996,
3.3300000000000001,-0.13515591621398926,
3.3325,-0.13397793471813202,
3.335,-0.13284802436828613,
3.3374999999999999,-0.13179025053977966,
3.3399999999999999,-0.1297948807477951,
3.3424999999999998,-0.12888133525848389,
3.3450000000000002,-0.12803992629051208,
3.3475000000000001,-0.12722253799438477,
3.3500000000000001,-0.12580415606498718,
3.3525,-0.1252271831035614,
3.355,-0.12479444593191147,
3.3574999999999999,-0.12445788085460663,
3.3599999999999999,-0.12419342994689941,
3.3624999999999998,-0.12416939437389374,
3.3650000000000002,-0.12414535135030746,
3.3675000000000002,-0.12404918670654297,
3.3700000000000001,-0.12342413514852524,
3.3725000000000001,-0.12279908359050751,
3.375,-0.12195765972137451,
3.3774999999999999,-0.12094795703887939,
3.3799999999999999,-0.11871218681335449,
3.3824999999999998,-0.1176784485578537,
3.3849999999999998,-0.1168370246887207,
3.3875000000000002,-0.11623601615428925,
3.3900000000000001,-0.11577924340963364,
3.3925000000000001,-0.11585136502981186,
3.395,-0.11601965129375458,
3.3975,-0.11613985151052475,
3.3999999999999999,-0.11592348664999008,
3.4024999999999999,-0.11549075692892075,
3.4049999999999998,-0.11486570537090302,
3.4075000000000002,-0.11409640312194824,
3.4100000000000001,-0.11267801374197006,
3.4125000000000001,-0.112269327044487,
3.415,-0.11219720542430878,
3.4175,-0.11253377050161362,
3.4199999999999999,-0.11426468938589096,
3.4224999999999999,-0.11541863530874252,
3.4249999999999998,-0.11654853820800781,
3.4275000000000002,-0.11743804067373276,
3.4300000000000002,-0.1177746057510376,
3.4325000000000001,-0.11698126792907715,
3.4350000000000001,-0.11551479995250702,
3.4375,-0.11344730854034424,
3.4399999999999999,-0.10811030864715576,
3.4424999999999999,-0.10529756546020508,
3.4449999999999998,-0.10272523015737534,
3.4474999999999998,-0.10058562457561493,
3.4500000000000002,-0.098277732729911804,
3.4525000000000001,-0.098205611109733582,
3.4550000000000001,-0.098806619644165039,
3.4575,-0.099912486970424652,
3.46,-0.10253290832042694,
3.4624999999999999,-0.10349452495574951,
3.4649999999999999,-0.10380705446004868,
3.4674999999999998,-0.10327816009521484,
3.4700000000000002,-0.098998948931694031,
3.4725000000000001,-0.095224581658840179,
3.4750000000000001,-0.09056071937084198,
3.4775,-0.08519967645406723,
3.48,-0.073804460465908051,
3.4824999999999999,-0.068467460572719574,
3.4849999999999999,-0.063851676881313324,
3.4874999999999998,-0.060245595872402191,
3.4900000000000002,-0.056735675781965256,
3.4925000000000002,-0.057000122964382172,
3.4950000000000001,-0.058538716286420822,
3.4975000000000001,-0.061255298554897308,
3.5,-0.069332920014858246,
3.5024999999999999,-0.074309311807155609,
3.5049999999999999,-0.079598233103752136,
3.5074999999999998,-0.085031390190124512,
3.5099999999999998,-0.095585189759731293,
3.5125000000000002,-0.10041733831167221,
3.5150000000000001,-0.10479271411895752,
3.5175000000000001,-0.10863920301198959,
3.52,-0.1145050972700119,
3.5225,-0.11654853820800781,
3.5249999999999999,-0.11813521385192871,
3.5274999999999999,-0.11931320279836655,
3.5299999999999998,-0.12104412168264389,
3.5325000000000002,-0.12174129486083984,
3.5350000000000001,-0.1223423108458519,
3.5375000000000001,-0.12275099754333496,
3.54,-0.12229423224925995,
3.5425,-0.12104412168264389,
3.5449999999999999,-0.11895259469747543,
3.5474999999999999,-0.11606772989034653,
3.5499999999999998,-0.10938446223735809,
3.5525000000000002,-0.1068602055311203,
3.5550000000000002,-0.10606686770915985,
3.5575000000000001,-0.10801415145397186,
3.5600000000000001,-0.12342413514852524,
3.5625,-0.13789653778076172,
3.5649999999999999,-0.15669624507427216,
3.5674999999999999,-0.17900586128234863,
3.5699999999999998,-0.2275196760892868,
3.5724999999999998,-0.24901191890239716,
3.5750000000000002,-0.26483058929443359,
3.5775000000000001,-0.27175426483154297,
3.5800000000000001,-0.2470165491104126,
3.5825,-0.21049897372722626,
3.585,-0.15587887167930603,
3.5874999999999999,-0.0830841064453125,
3.5899999999999999,0.11058648675680161,
3.5924999999999998,0.22461077570915222,
3.5950000000000002,0.34322679042816162,
3.5975000000000001,0.4597993791103363,
3.6000000000000001,0.658133864402771,
3.6025,0.72590410709381104,
3.605,0.7650902271270752,
3.6074999999999999,0.77208602428436279,
3.6099999999999999,0.68683826923370361,
3.6124999999999998,0.59964323043823242,
3.6150000000000002,0.48994621634483337,
3.6175000000000002,0.3654402494430542,
3.6200000000000001,0.10647555440664291,
3.6225000000000001,-0.011443297378718853,
3.625,-0.11267801374197006,
3.6274999999999999,-0.19282917678356171,
3.6299999999999999,-0.28413516283035278,
3.6324999999999998,-0.29769402742385864,
3.6349999999999998,-0.29435238242149353,
3.6375000000000002,-0.27867794036865234,
3.6400000000000001,-0.22925059497356415,
3.6425000000000001,-0.20362338423728943,
3.645,-0.18121759593486786,
3.6475,-0.16347567737102509,
3.6499999999999999,-0.14258444309234619,
3.6524999999999999,-0.13794462382793427,
3.6549999999999998,-0.13554057478904724,
3.6575000000000002,-0.13414621353149414,
3.6600000000000001,-0.1306363046169281,
3.6625000000000001,-0.12753507494926453,
3.665,-0.12352029979228973,
3.6675,-0.11880835145711899,
3.6699999999999999,-0.10895173251628876,
3.6724999999999999,-0.10450422763824463,
3.6749999999999998,-0.1007058247923851,
3.6775000000000002,-0.097556516528129578,
3.6800000000000002,-0.092844568192958832,
3.6825000000000001,-0.090921327471733093,
3.6850000000000001,-0.089046165347099304,
3.6875,-0.087074838578701019,
3.6899999999999999,-0.08269946277141571,
3.6924999999999999,-0.080367527902126312,
3.6949999999999998,-0.078059636056423187,
3.6974999999999998,-0.075871944427490234,
3.7000000000000002,-0.07209758460521698,
3.7025000000000001,-0.070558987557888031,
3.7050000000000001,-0.069188676774501801,
3.7075,-0.067890487611293793,
3.71,-0.06502966582775116,
3.7124999999999999,-0.063274703919887543,
3.7149999999999999,-0.061159133911132812,
3.7174999999999998,-0.058682959526777267,
3.7200000000000002,-0.052528582513332367,
3.7225000000000001,-0.048970580101013184,
3.7250000000000001,-0.045172177255153656,
3.7275,-0.04120548814535141,
3.73,-0.033272109925746918,
3.7324999999999999,-0.029449662193655968,
3.7349999999999999,-0.025891661643981934,
3.7374999999999998,-0.022622149437665939,
3.7400000000000002,-0.017044743523001671,
3.7425000000000002,-0.014712810516357422,
3.7450000000000001,-0.012549161911010742,
3.7475000000000001,-0.010481676086783409,
3.75,-0.0060101351700723171,
3.7524999999999999,-0.0032935540657490492,
3.7549999999999999,-7.2121620178222656e-05,
3.7574999999999998,0.0037262837868183851,
3.7599999999999998,0.013270378112792969,
3.7625000000000002,0.019016068428754807,
3.7650000000000001,0.025338729843497276,
3.7675000000000001,0.032070081681013107,
3.77,0.046374201774597168,
3.7725,0.053634446114301682,
3.7749999999999999,0.060774486511945724,
3.7774999999999999,0.067698165774345398,
3.7799999999999998,0.080487728118896484,
3.7825000000000002,0.086257457733154297,
3.7850000000000001,0.091618500649929047,
3.7875000000000001,0.09659489244222641,
3.79,0.10561009496450424,
3.7925,0.10979314893484116,
3.7949999999999999,0.1138560026884079,
3.7974999999999999,0.11787077039480209,
3.7999999999999998,0.12573203444480896,
3.8025000000000002,0.12950639426708221,
3.8050000000000002,0.1330643892288208,
3.8075000000000001,0.13626179099082947,
3.8100000000000001,0.14085352420806885,
3.8125,0.14188727736473083,
3.8149999999999999,0.14181515574455261,
3.8174999999999999,0.1405169665813446,
3.8199999999999998,0.13388177752494812,
3.8224999999999998,0.1284966915845871,
3.8250000000000002,0.12176533788442612,
3.8275000000000001,0.11380791664123535,
3.8300000000000001,0.094743773341178894,
3.8325,0.083997651934623718,
3.835,0.072722636163234711,
3.8374999999999999,0.06108701229095459,
3.8399999999999999,0.037527285516262054,
3.8424999999999998,0.025939743965864182,
3.8450000000000002,0.01461664866656065,
3.8475000000000001,0.0036301217041909695,
3.8500000000000001,-0.017188986763358116,
3.8525,-0.027093689888715744,
3.855,-0.036685865372419357,
3.8574999999999999,-0.046037636697292328,
3.8599999999999999,-0.06394784152507782,
3.8624999999999998,-0.07243414968252182,
3.8650000000000002,-0.080487728118896484,
3.8675000000000002,-0.087988376617431641,
3.8700000000000001,-0.10085006803274155,
3.8725000000000001,-0.1060187816619873,
3.875,-0.11032204329967499,
3.8774999999999999,-0.11378388106822968,
3.8799999999999999,-0.11864006519317627,
3.8824999999999998,-0.12032290548086166,
3.8849999999999998,-0.12174129486083984,
3.8875000000000002,-0.12301544845104218,
3.8900000000000001,-0.12553970515727997,
3.8925000000000001,-0.12683789432048798,
3.895,-0.12811204791069031,
3.8975,-0.12931406497955322,
3.8999999999999999,-0.13114115595817566,
3.9024999999999999,-0.13164600729942322,
3.9049999999999998,-0.13191044330596924,
3.9075000000000002,-0.13191044330596924,
3.9100000000000001,-0.13133347034454346,
3.9125000000000001,-0.13087670505046844,
3.915,-0.13037185370922089,
3.9175,-0.129891037940979,
3.9199999999999999,-0.12941023707389832,
3.9224999999999999,-0.12844860553741455,
3.9249999999999998,-0.12796780467033386,
3.9275000000000002,-0.12748698890209198,
3.9300000000000002,-0.12654940783977509,
3.9325000000000001,-0.12618879973888397,
3.9350000000000001,-0.12590031325817108,
3.9375,-0.12575607001781464,
3.9399999999999999,-0.12582819163799286,
3.9424999999999999,-0.12599647045135498,
3.9449999999999998,-0.12621283531188965,
3.9474999999999998,-0.12635707855224609,
3.9500000000000002,-0.12628495693206787,
3.9525000000000001,-0.1259724348783493,
3.9550000000000001,-0.12544354796409607,
3.9575,-0.12472232431173325,
3.96,-0.12287120521068573,
3.9624999999999999,-0.12183745950460434,
3.9649999999999999,-0.12082775682210922,
3.9674999999999998,-0.11986613273620605,
3.9700000000000002,-0.11827945709228516,
3.9725000000000001,-0.11770248413085938,
3.9750000000000001,-0.11726975440979004,
3.9775,-0.1169331893324852,
3.98,-0.11647641658782959,
3.9824999999999999,-0.11626005172729492,
3.9849999999999999,-0.11594752967357635,
3.9874999999999998,-0.11551479995250702,
3.9900000000000002,-0.11409640312194824,
3.9925000000000002,-0.11308670043945312,
3.9950000000000001,-0.11186063289642334,
3.9975000000000001,-0.11044224351644516,
4,-0.10734101384878159,67.039100646972656
4.0025000000000004,-0.10577838122844696,
4.0049999999999999,-0.10431190580129623,
4.0075000000000003,-0.10298967361450195,
4.0099999999999998,-0.10106643289327621,
4.0125000000000002,-0.10048945993185043,
4.0149999999999997,-0.10010480880737305,
4.0175000000000001,-0.099888443946838379,
4.0199999999999996,-0.099575921893119812,
4.0225,-0.099311470985412598,
4.0250000000000004,-0.098830662667751312,
4.0274999999999999,-0.098157525062561035,
4.0300000000000002,-0.096114084124565125,
4.0324999999999998,-0.094888016581535339,
4.0350000000000001,-0.093637906014919281,
4.0374999999999996,-0.092508003115653992,
4.04,-0.09089728444814682,
4.0425000000000004,-0.090536676347255707,
4.0449999999999999,-0.090464554727077484,
4.0475000000000003,-0.090680919587612152,
4.0499999999999998,-0.091065570712089539,
4.0525000000000002,-0.092099308967590332,
4.0549999999999997,-0.092580124735832214,
4.0575000000000001,-0.092916689813137054,
4.0599999999999996,-0.093133054673671722,
4.0625,-0.092988811433315277,
4.0650000000000004,-0.092676281929016113,
4.0674999999999999,-0.092243552207946777,
4.0700000000000003,-0.091161727905273438,
4.0724999999999998,-0.090608797967433929,
4.0750000000000002,-0.090103946626186371,
4.0774999999999997,-0.089695259928703308,
4.0800000000000001,-0.089358687400817871,
4.0824999999999996,-0.089430809020996094,
4.085,-0.089671216905117035,
4.0875000000000004,-0.090007781982421875,
4.0899999999999999,-0.090536676347255707,
4.0925000000000002,-0.09056071937084198,
4.0949999999999998,-0.090272232890129089,
4.0975000000000001,-0.089623138308525085,
4.0999999999999996,-0.087267160415649414,
4.1025,-0.085680484771728516,
4.1050000000000004,-0.083973608911037445,
4.1074999999999999,-0.082266733050346375,
4.1100000000000003,-0.07921358197927475,
4.1124999999999998,-0.078011557459831238,
4.1150000000000002,-0.076977811753749847,
4.1174999999999997,-0.076112352311611176,
4.1200000000000001,-0.074477598071098328,
4.1224999999999996,-0.073612138628959656,
4.125,-0.072674557566642761,
4.1275000000000004,-0.071761012077331543,
4.1299999999999999,-0.070438787341117859,
4.1325000000000003,-0.070222422480583191,
4.1349999999999998,-0.070438787341117859,
4.1375000000000002,-0.071039795875549316,
4.1399999999999997,-0.07277071475982666,
4.1425000000000001,-0.073323652148246765,
4.1449999999999996,-0.073203444480895996,
4.1475,-0.072049498558044434,
4.1500000000000004,-0.065726839005947113,
4.1524999999999999,-0.060413878411054611,
4.1550000000000002,-0.053946971893310547,
4.1574999999999998,-0.046662688255310059,
4.1600000000000001,-0.031877756118774414,
4.1624999999999996,-0.025555094704031944,
4.165,-0.020698904991149902,
4.1675000000000004,-0.017693838104605675,
4.1699999999999999,-0.017910202965140343,
4.1725000000000003,-0.021011432632803917,
4.1749999999999998,-0.025795500725507736,
4.1775000000000002,-0.031829677522182465,
4.1799999999999997,-0.045797228813171387,
4.1825000000000001,-0.052865147590637207,
4.1849999999999996,-0.059500336647033691,
4.1875,-0.065486431121826172,
4.1900000000000004,-0.075006484985351562,
4.1924999999999999,-0.078564487397670746,
4.1950000000000003,-0.081449352204799652,
4.1974999999999998,-0.08378128707408905,
4.2000000000000002,-0.087387368083000183,
4.2024999999999997,-0.088950000703334808,
4.2050000000000001,-0.090488597750663757,
4.2074999999999996,-0.092003151774406433,
4.21,-0.094839930534362793,
4.2125000000000004,-0.095897719264030457,
4.2149999999999999,-0.096450649201869965,
4.2175000000000002,-0.096330448985099792,
4.2199999999999998,-0.093373462557792664,
4.2225000000000001,-0.090488597750663757,
4.2249999999999996,-0.086906552314758301,
4.2275,-0.083060070872306824,
4.2300000000000004,-0.077314376831054688,
4.2324999999999999,-0.077146098017692566,
4.2350000000000003,-0.080079041421413422,
4.2374999999999998,-0.086882516741752625,
4.2400000000000002,-0.11424064636230469,
4.2424999999999997,-0.13472318649291992,
4.2450000000000001,-0.15876373648643494,
4.2474999999999996,-0.18496792018413544,
4.25,-0.2352607250213623,
4.2525000000000004,-0.25391620397567749,
4.2549999999999999,-0.26420554518699646,
4.2575000000000003,-0.26300352811813354,
4.2599999999999998,-0.21518687903881073,
4.2625000000000002,-0.16462962329387665,
4.2649999999999997,-0.095248624682426453,
4.2675000000000001,-0.0077891349792480469,
4.2699999999999996,0.21129231154918671,
4.2725,0.33411544561386108,
4.2750000000000004,0.4577559232711792,
4.2774999999999999,0.57500165700912476,
4.2800000000000002,0.76028209924697876,
4.2824999999999998,0.81473392248153687,
4.2850000000000001,0.83697140216827393,
4.2874999999999996,0.82451844215393066,
4.29,0.69871425628662109,
4.2925000000000004,0.59348881244659424,
4.2949999999999999,0.46917518973350525,
4.2975000000000003,0.33450007438659668,
4.2999999999999998,0.07027050107717514,
4.3025000000000002,-0.043104689568281174,
4.3049999999999997,-0.13597330451011658,
4.3075000000000001,-0.20521005988121033,
4.3099999999999996,-0.27223509550094604,
4.3125,-0.27497571706771851,
4.3150000000000004,-0.2629554271697998,
4.3174999999999999,-0.24119874835014343,
4.3200000000000003,-0.18751621246337891,
4.3224999999999998,-0.16294679045677185,
4.3250000000000002,-0.14287292957305908,
4.3274999999999997,-0.12803992629051208,
4.3300000000000001,-0.1123654842376709,
4.3324999999999996,-0.10926425457000732,
4.335,-0.10755737870931625,
4.3375000000000004,-0.10609090328216553,
4.3399999999999999,-0.10111451148986816,
4.3425000000000002,-0.097219944000244141,
4.3449999999999998,-0.092580124735832214,
4.3475000000000001,-0.087603732943534851,
4.3499999999999996,-0.078203879296779633,
4.3525,-0.074357390403747559,
4.3550000000000004,-0.071160003542900085,
4.3574999999999999,-0.068587660789489746,
4.3600000000000003,-0.064500771462917328,
4.3624999999999998,-0.062577530741691589,
4.3650000000000002,-0.060510039329528809,
4.3674999999999997,-0.058202147483825684,
4.3700000000000001,-0.05288919061422348,
4.3724999999999996,-0.050052404403686523,
4.375,-0.04723966121673584,
4.3775000000000004,-0.044571161270141602,
4.3799999999999999,-0.039907298982143402,
4.3825000000000003,-0.03796001523733139,
4.3849999999999998,-0.036229096353054047,
4.3875000000000002,-0.034642420709133148,
4.3899999999999997,-0.031517148017883301,
4.3925000000000001,-0.029786229133605957,
4.3949999999999996,-0.027862986549735069,
4.3975,-0.025723379105329514,
4.4000000000000004,-0.020698904991149902,
4.4024999999999999,-0.017862122505903244,
4.4050000000000002,-0.014857053756713867,
4.4074999999999998,-0.011707743629813194,
4.4100000000000001,-0.0051446757279336452,
4.4124999999999996,-0.0017790000420063734,
4.415,0.0016107162227854133,
4.4175000000000004,0.0050485134124755859,
4.4199999999999999,0.011996230110526085,
4.4225000000000003,0.015506148338317871,
4.4249999999999998,0.019112229347229004,
4.4275000000000002,0.022766392678022385,
4.4299999999999997,0.030435323715209961,
4.4325000000000001,0.034522216767072678,
4.4349999999999996,0.038825474679470062,
4.4375,0.043393176048994064,
4.4400000000000004,0.053634446114301682,
4.4424999999999999,0.059380136430263519,
4.4450000000000003,0.065558552742004395,
4.4474999999999998,0.072169706225395203,
4.4500000000000002,0.086401700973510742,
4.4524999999999997,0.093782149255275726,
4.4550000000000001,0.10109047591686249,
4.4574999999999996,0.10820647329092026,
4.46,0.12116432189941406,
4.4625000000000004,0.12678980827331543,
4.4649999999999999,0.13183832168579102,
4.4675000000000002,0.13633391261100769,
4.4699999999999998,0.14409899711608887,
4.4725000000000001,0.14765700697898865,
4.4749999999999996,0.15121500194072723,
4.4775,0.15484511852264404,
4.4800000000000004,0.16249001026153564,
4.4824999999999999,0.16643266379833221,
4.4850000000000003,0.17027914524078369,
4.4874999999999998,0.1738131046295166,
4.4900000000000002,0.17907798290252686,
4.4924999999999997,0.18037617206573486,
4.4950000000000001,0.18049637973308563,
4.4974999999999996,0.17931839823722839,
4.5,0.17273128032684326,
4.5025000000000004,0.16729812324047089,
4.5049999999999999,0.16054272651672363,
4.5075000000000003,0.15253722667694092,
4.5099999999999998,0.13340096175670624,
4.5125000000000002,0.12260675430297852,
4.5149999999999997,0.11123558133840561,
4.5175000000000001,0.099455714225769043,
4.5199999999999996,0.075294971466064453,
4.5225,0.063178539276123047,
4.5250000000000004,0.051206350326538086,
4.5274999999999999,0.039426486939191818,
4.5300000000000002,0.016684135422110558,
4.5324999999999998,0.0057937703095376492,
4.5350000000000001,-0.004735986702144146,
4.5374999999999996,-0.01492917537689209,
4.54,-0.033993326127529144,
4.5425000000000004,-0.042816203087568283,
4.5449999999999999,-0.051038067787885666,
4.5475000000000003,-0.058610837906599045,
4.5499999999999998,-0.071520611643791199,
4.5525000000000002,-0.07671336829662323,
4.5549999999999997,-0.081040665507316589,
4.5575000000000001,-0.084502503275871277,
4.5599999999999996,-0.088950000703334808,
4.5625,-0.090127989649772644,
4.5650000000000004,-0.090777084231376648,
4.5674999999999999,-0.091017484664916992,
4.5700000000000003,-0.091089606285095215,
4.5724999999999998,-0.09123384952545166,
4.5750000000000002,-0.091618500649929047,
4.5774999999999997,-0.092315673828125,
4.5800000000000001,-0.094719730317592621,
4.5824999999999996,-0.09625832736492157,
4.585,-0.097869038581848145,
4.5875000000000004,-0.099359557032585144,
4.5899999999999999,-0.10140299797058105,
4.5925000000000002,-0.10169148445129395,
4.5949999999999998,-0.10142704099416733,
4.5975000000000001,-0.10063370317220688,
4.5999999999999996,-0.097869038581848145,
4.6025,-0.096234284341335297,
4.6050000000000004,-0.094647608697414398,
4.6074999999999999,-0.093301340937614441,
4.6100000000000003,-0.091738700866699219,
4.6124999999999998,-0.091594457626342773,
4.6150000000000002,-0.091858908534049988,
4.6174999999999997,-0.092411838471889496,
4.6200000000000001,-0.093950435519218445,
4.6224999999999996,-0.094695687294006348,
4.625,-0.095320746302604675,
4.6275000000000004,-0.095729433000087738,
4.6299999999999999,-0.09584963321685791,
4.6325000000000003,-0.095537111163139343,
4.6349999999999998,-0.095008216798305511,
4.6375000000000002,-0.094287000596523285,
4.6399999999999997,-0.092363759875297546,
4.6425000000000001,-0.091257892549037933,
4.6449999999999996,-0.090103946626186371,
4.6475,-0.088974043726921082,
4.6500000000000004,-0.087146960198879242,
4.6524999999999999,-0.086594030261039734,
4.6550000000000002,-0.086353622376918793,
4.6574999999999998,-0.086473822593688965,
4.6600000000000001,-0.087627768516540527,
4.6624999999999996,-0.088517270982265472,
4.665,-0.089454852044582367,
4.6675000000000004,-0.090296268463134766,
4.6699999999999999,-0.091185770928859711,
4.6725000000000003,-0.091041527688503265,
4.6749999999999998,-0.090440511703491211,
4.6775000000000002,-0.089358687400817871,
4.6799999999999997,-0.086113214492797852,
4.6825000000000001,-0.084141895174980164,
4.6849999999999996,-0.082074403762817383,
4.6875,-0.080054998397827148,
4.6900000000000004,-0.076689325273036957,
4.6924999999999999,-0.075535379350185394,
4.6950000000000003,-0.074790120124816895,
4.6974999999999998,-0.074525676667690277,
4.7000000000000002,-0.075198814272880554,
4.7024999999999997,-0.075992152094841003,
4.7050000000000001,-0.076953768730163574,
4.7074999999999996,-0.077915392816066742,
4.71,-0.079381868243217468,
4.7125000000000004,-0.079670354723930359,
4.7149999999999999,-0.079598233103752136,
4.7175000000000002,-0.079189538955688477,
4.7199999999999998,-0.077578827738761902,
4.7225000000000001,-0.076593160629272461,
4.7249999999999996,-0.075607500970363617,
4.7275,-0.074742041528224945,
4.7300000000000004,-0.07351597398519516,
4.7324999999999999,-0.073203444480895996,
4.7350000000000003,-0.073059201240539551,
4.7374999999999998,-0.073035165667533875,
4.7400000000000002,-0.073155365884304047,
4.7424999999999997,-0.073227487504482269,
4.7450000000000001,-0.073275566101074219,
4.7474999999999996,-0.073251530528068542,
4.75,-0.073059201240539551,
4.7525000000000004,-0.072818800806999207,
4.7549999999999999,-0.072410106658935547,
4.7575000000000003,-0.071857176721096039,
4.7599999999999998,-0.070078179240226746,
4.7625000000000002,-0.06890019029378891,
4.7649999999999997,-0.067602001130580902,
4.7675000000000001,-0.066327854990959167,
4.7699999999999996,-0.064356528222560883,
4.7725,-0.06394784152507782,
4.7750000000000004,-0.064092084765434265,
4.7774999999999999,-0.064789257943630219,
4.7800000000000002,-0.067650079727172852,
4.7824999999999998,-0.069549284875392914,
4.7850000000000001,-0.071472525596618652,
4.7874999999999996,-0.073203444480895996,
4.79,-0.075439214706420898,
4.7925000000000004,-0.075703665614128113,
4.7949999999999999,-0.075415179133415222,
4.7975000000000003,-0.074621841311454773,
4.7999999999999998,-0.072073541581630707,
4.8025000000000002,-0.070558987557888031,
4.8049999999999997,-0.069068476557731628,
4.8075000000000001,-0.067577958106994629,
4.8099999999999996,-0.064669057726860046,
4.8125,-0.063130460679531097,
4.8150000000000004,-0.061423581093549728,
4.8174999999999999,-0.059476297348737717,
4.8200000000000003,-0.054932635277509689,
4.8224999999999998,-0.052432417869567871,
4.8250000000000002,-0.050004325807094574,
4.8274999999999997,-0.047792594879865646,
4.8300000000000001,-0.044811569154262543,
4.8324999999999996,-0.044330757111310959,
4.835,-0.044619243592023849,
4.8375000000000004,-0.045677028596401215,
4.8399999999999999,-0.04935523122549057,
4.8425000000000002,-0.051422715187072754,
4.8449999999999998,-0.053201716393232346,
4.8475000000000001,-0.054283540695905685,
4.8499999999999996,-0.053081512451171875,
4.8525,-0.050388973206281662,
4.8550000000000004,-0.046181879937648773,
4.8574999999999999,-0.040604472160339355,
4.8600000000000003,-0.026564797386527061,
4.8624999999999998,-0.018943946808576584,
4.8650000000000002,-0.011587540619075298,
4.8674999999999997,-0.0050244731828570366,
4.8700000000000001,0.0041590137407183647,
4.8724999999999996,0.0062505407258868217,
4.875,0.0065149865113198757,
4.8775000000000004,0.0050485134124755859,
4.8799999999999999,-0.0022357702255249023,
4.8825000000000003,-0.0074766082689166069,
4.8849999999999998,-0.013318459503352642,
4.8875000000000002,-0.019448798149824142,
4.8899999999999997,-0.031613312661647797,
4.8925000000000001,-0.037286877632141113,
4.8949999999999996,-0.04257579892873764,
4.8975,-0.047407947480678558,
4.9000000000000004,-0.055701933801174164,
4.9024999999999999,-0.059211850166320801,
4.9050000000000002,-0.062337122857570648,
4.9074999999999998,-0.065077744424343109,
4.9100000000000001,-0.069573327898979187,
4.9124999999999996,-0.071304246783256531,
4.915,-0.072650514543056488,
4.9175000000000004,-0.073540017008781433,
4.9199999999999999,-0.073491930961608887,
4.9225000000000003,-0.072313949465751648,
4.9249999999999998,-0.070246458053588867,
4.9275000000000002,-0.067265436053276062,
4.9299999999999997,-0.059476297348737717,
4.9325000000000001,-0.055557690560817719,
4.9349999999999996,-0.052528582513332367,
4.9375,-0.051278471946716309,
4.9400000000000004,-0.057961743324995041,
4.9424999999999999,-0.067505836486816406,
4.9450000000000003,-0.081809960305690765,
4.9474999999999998,-0.10082602500915527,
4.9500000000000002,-0.149844691157341,
4.9524999999999997,-0.17681817710399628,
4.9550000000000001,-0.20254155993461609,
4.9574999999999996,-0.22420208156108856,
4.96,-0.24329027533531189,
4.9625000000000004,-0.23470780253410339,
4.9649999999999999,-0.21049897372722626,
4.9675000000000002,-0.16883671283721924,
4.9699999999999998,-0.030098756775259972,
4.9725000000000001,0.065438352525234222,
4.9749999999999996,0.17508725821971893,
4.9775,0.29459279775619507,
4.9800000000000004,0.53973418474197388,
4.9824999999999999,0.65142655372619629,
4.9850000000000003,0.74602603912353516,
4.9874999999999998,0.81670522689819336,
4.9900000000000002,0.86557966470718384,
4.9924999999999997,0.83853405714035034,
4.9950000000000001,0.77783167362213135,
4.9974999999999996,0.68717479705810547,
5,0.44220170378684998,77.77777099609375
5.0025000000000004,0.3046417236328125,
5.0049999999999999,0.16910116374492645,
5.0075000000000003,0.043898027390241623,
5.0099999999999998,-0.15006105601787567,
5.0125000000000002,-0.21165291965007782,
5.0149999999999997,-0.24879555404186249,
5.0175000000000001,-0.26365262269973755,
5.0199999999999996,-0.24252097308635712,
5.0225,-0.21643698215484619,
5.0250000000000004,-0.18657863140106201,
5.0274999999999999,-0.15700876712799072,
5.0300000000000002,-0.10948061943054199,
5.0324999999999998,-0.093926392495632172,
5.0350000000000001,-0.083733201026916504,
5.0374999999999996,-0.077915392816066742,
5.04,-0.073924660682678223,
5.0425000000000004,-0.07317940890789032,
5.0449999999999999,-0.071953341364860535,
5.0475000000000003,-0.069741606712341309,
5.0499999999999998,-0.0622890405356884,
5.0525000000000002,-0.057577095925807953,
5.0549999999999997,-0.052720904350280762,
5.0575000000000001,-0.048177242279052734,
5.0599999999999996,-0.040989123284816742,
5.0625,-0.038536988198757172,
5.0650000000000004,-0.03675798699259758,
5.0674999999999999,-0.035435758531093597,
5.0700000000000003,-0.033320188522338867,
5.0724999999999998,-0.03214220330119133,
5.0750000000000002,-0.030675729736685753,
5.0774999999999997,-0.028872689232230186,
5.0800000000000001,-0.024232864379882812,
5.0824999999999996,-0.021468203514814377,
5.085,-0.018535256385803223,
5.0875000000000004,-0.015458067879080772,
5.0899999999999999,-0.009135405533015728,
5.0925000000000002,-0.0059860944747924805,
5.0949999999999998,-0.0029329459648579359,
5.0975000000000001,0,
5.0999999999999996,0.0052648782730102539,
5.1025,0.0075246891938149929,
5.1050000000000004,0.0095681352540850639,
5.1074999999999999,0.011419257149100304,
5.1100000000000003,0.014760891906917095,
5.1124999999999998,0.01646777056157589,
5.1150000000000002,0.018366973847150803,
5.1174999999999997,0.020554661750793457,
5.1200000000000001,0.02598782442510128,
5.1224999999999996,0.029305418953299522,
5.125,0.032983623445034027,
5.1275000000000004,0.036998391151428223,
5.1299999999999999,0.045628946274518967,
5.1325000000000003,0.050124526023864746,
5.1349999999999998,0.054644148796796799,
5.1375000000000002,0.059163771569728851,
5.1399999999999997,0.068130895495414734,
5.1425000000000001,0.072602435946464539,
5.1449999999999996,0.077122054994106293,
5.1475,0.081689760088920593,
5.1500000000000004,0.091257892549037933,
5.1524999999999999,0.096354484558105469,
5.1550000000000002,0.10171552747488022,
5.1574999999999998,0.10736505687236786,
5.1600000000000001,0.11948148906230927,
5.1624999999999996,0.12592434883117676,
5.165,0.13251146674156189,
5.1675000000000004,0.13919472694396973,
5.1699999999999999,0.15239298343658447,
5.1725000000000003,0.15876373648643494,
5.1749999999999998,0.16484598815441132,
5.1775000000000002,0.17061571776866913,
5.1799999999999997,0.18100123107433319,
5.1825000000000001,0.18556892871856689,
5.1849999999999996,0.18972794711589813,
5.1875,0.19343018531799316,
5.1900000000000004,0.19929608702659607,
5.1924999999999999,0.20136356353759766,
5.1950000000000003,0.20278196036815643,
5.1974999999999998,0.20347914099693298,
5.2000000000000002,0.202445387840271,
5.2024999999999997,0.20059427618980408,
5.2050000000000001,0.19775748252868652,
5.2074999999999996,0.19391100108623505,
5.21,0.18290042877197266,
5.2125000000000004,0.17564019560813904,
5.2149999999999999,0.16717791557312012,
5.2175000000000002,0.15751361846923828,
5.2199999999999998,0.13484339416027069,
5.2225000000000001,0.1221499890089035,
5.2249999999999996,0.10878344625234604,
5.2275,0.081160865724086761,
5.2300000000000004,0.067457757890224457,
5.2324999999999999,0.05413929745554924,
5.2350000000000003,0.041445892304182053,
5.2374999999999998,0.018415054306387901,
5.2400000000000002,0.0081497430801391602,
5.2424999999999997,-0.0012501081218943,
5.2450000000000001,-0.0098806619644165039,
5.2474999999999996,-0.025002162903547287,
5.25,-0.031661391258239746,
5.2525000000000004,-0.037743650376796722,
5.2549999999999999,-0.043321054428815842,
5.2575000000000003,-0.053009390830993652,
5.2599999999999998,-0.057168405503034592,
5.2625000000000002,-0.060894690454006195,
5.2649999999999997,-0.064188241958618164,
5.2675000000000001,-0.067121192812919617,
5.2699999999999996,-0.071857176721096039,
5.2725,-0.073708295822143555,
5.2750000000000004,-0.07522284984588623,
5.2774999999999999,-0.077242255210876465,
5.2800000000000002,-0.07779519259929657,
5.2824999999999998,-0.078107714653015137,
5.2850000000000001,-0.078227922320365906,
5.2874999999999996,-0.078179836273193359,
5.29,-0.078179836273193359,
5.2925000000000004,-0.078276000916957855,
5.2949999999999999,-0.078516408801078796,
5.2975000000000003,-0.079405903816223145,
5.2999999999999998,-0.07995884120464325,
5.3025000000000002,-0.080511771142482758,
5.3049999999999997,-0.08092045783996582,
5.3075000000000001,-0.081160865724086761,
5.3099999999999996,-0.080872379243373871,
5.3125,-0.080343484878540039,
5.3150000000000004,-0.079646311700344086,
5.3174999999999999,-0.078107714653015137,
5.3200000000000003,-0.077458620071411133,
5.3224999999999998,-0.077025890350341797,
5.3250000000000002,-0.076833568513393402,
5.3274999999999997,-0.077170133590698242,
5.3300000000000001,-0.077602863311767578,
5.3324999999999996,-0.078035593032836914,
5.335,-0.078372165560722351,
5.3375000000000004,-0.078324079513549805,
5.3399999999999999,-0.077771149575710297,
5.3425000000000002,-0.076857611536979675,
5.3449999999999998,-0.075607500970363617,
5.3475000000000001,-0.072554349899291992,
5.3499999999999996,-0.07101576030254364,
5.3525,-0.069693528115749359,
5.3550000000000004,-0.068707868456840515,
5.3574999999999999,-0.068010687828063965,
5.3600000000000003,-0.068323217332363129,
5.3624999999999998,-0.068996354937553406,
5.3650000000000002,-0.069885849952697754,
5.3674999999999997,-0.071785055100917816,
5.3700000000000001,-0.072506271302700043,
5.3724999999999996,-0.072939001023769379,
5.375,-0.073011122643947601,
5.3775000000000004,-0.07209758460521698,
5.3799999999999999,-0.071232125163078308,
5.3825000000000003,-0.070222422480583191,
5.3849999999999998,-0.069140598177909851,
5.3875000000000002,-0.067121192812919617,
5.3899999999999997,-0.066279768943786621,
5.3925000000000001,-0.065558552742004395,
5.3949999999999996,-0.064957544207572937,
5.3975,-0.063923798501491547,
5.4000000000000004,-0.063418947160243988,
5.4024999999999999,-0.06286601722240448,
5.4050000000000002,-0.062192879617214203,
5.4074999999999998,-0.060558121651411057,
5.4100000000000001,-0.059572458267211914,
5.4124999999999996,-0.058514676988124847,
5.415,-0.05738477036356926,
5.4175000000000004,-0.055149000138044357,
5.4199999999999999,-0.054091215133666992,
5.4225000000000003,-0.053081512451171875,
5.4249999999999998,-0.052167974412441254,
5.4275000000000002,-0.050461094826459885,
5.4299999999999997,-0.049667757004499435,
5.4325000000000001,-0.048922501504421234,
5.4349999999999996,-0.048201285302639008,
5.4375,-0.047095417976379395,
5.4400000000000004,-0.046830974519252777,
5.4424999999999999,-0.046806931495666504,
5.4450000000000003,-0.047095417976379395,
5.4474999999999998,-0.048561893403530121,
5.4500000000000002,-0.049595635384321213,
5.4524999999999997,-0.050701498985290527,
5.4550000000000001,-0.051663123071193695,
5.4574999999999996,-0.05260070413351059,
5.46,-0.052384339272975922,
5.4625000000000004,-0.05168716236948967,
5.4649999999999999,-0.050557255744934082,
5.4675000000000002,-0.047720473259687424,
5.4699999999999998,-0.046422284096479416,
5.4725000000000001,-0.045436620712280273,
5.4749999999999996,-0.04490773007273674,
5.4775,-0.045316420495510101,
5.4800000000000004,-0.046109758317470551,
5.4824999999999999,-0.047047339379787445,
5.4850000000000003,-0.047936838120222092,
5.4874999999999998,-0.048850379884243011,
5.4900000000000002,-0.048682093620300293,
5.4924999999999997,-0.048057042062282562,
5.4950000000000001,-0.047119460999965668,
5.4974999999999996,-0.044859647750854492,
5.5,-0.043898027390241623,
5.5025000000000004,-0.043224893510341644,
5.5049999999999999,-0.042888324707746506,
5.5075000000000003,-0.043128728866577148,
5.5099999999999998,-0.043489336967468262,
5.5125000000000002,-0.0438259057700634,
5.5149999999999997,-0.04399418830871582,
5.5175000000000001,-0.04336913675069809,
5.5199999999999996,-0.042503677308559418,
5.5225,-0.041277609765529633,
5.5250000000000004,-0.039763055741786957,
5.5274999999999999,-0.036229096353054047,
5.5300000000000002,-0.034353934228420258,
5.5324999999999998,-0.032478772103786469,
5.5350000000000001,-0.030675729736685753,
5.5374999999999996,-0.027358135208487511,
5.54,-0.025891661643981934,
5.5425000000000004,-0.024593472480773926,
5.5449999999999999,-0.023559730499982834,
5.5475000000000003,-0.02245386503636837,
5.5499999999999998,-0.022501945495605469,
5.5525000000000002,-0.022958716377615929,
5.5549999999999997,-0.023800134658813477,
5.5575000000000001,-0.026108026504516602,
5.5599999999999996,-0.027141770347952843,
5.5625,-0.027766823768615723,
5.5650000000000004,-0.027670662850141525,
5.5674999999999999,-0.024329027161002159,
5.5700000000000003,-0.020795067772269249,
5.5724999999999998,-0.016059082001447678,
5.5750000000000002,-0.010241270065307617,
5.5774999999999997,0.0031973919831216335,
5.5800000000000001,0.0099287433549761772,
5.5824999999999996,0.016035040840506554,
5.585,0.021035473793745041,
5.5875000000000004,0.026348432525992393,
5.5899999999999999,0.026276310905814171,
5.5925000000000002,0.024425189942121506,
5.5949999999999998,0.020939311012625694,
5.5975000000000001,0.010337432846426964,
5.5999999999999996,0.0039666891098022461,
5.6025,-0.0025723378639668226,
5.6050000000000004,-0.0089430809020996094,
5.6074999999999999,-0.020145973190665245,
5.6100000000000003,-0.024665594100952148,
5.6124999999999998,-0.028391879051923752,
5.6150000000000002,-0.031396947801113129,
5.6174999999999997,-0.035700201988220215,
5.6200000000000001,-0.037334959954023361,
5.6224999999999996,-0.038825474679470062,
5.625,-0.040315985679626465,
5.6275000000000004,-0.04353741928935051,
5.6299999999999999,-0.045196216553449631,
5.6325000000000003,-0.046734809875488281,
5.6349999999999998,-0.047912798821926117,
5.6375000000000002,-0.048297446221113205,
5.6399999999999997,-0.047095417976379395,
5.6425000000000001,-0.044883690774440765,
5.6449999999999996,-0.041782461106777191,
5.6475,-0.034690499305725098,
5.6500000000000004,-0.032046042382717133,
5.6524999999999999,-0.031156539916992188,
5.6550000000000002,-0.03305574506521225,
5.6574999999999998,-0.048393607139587402,
5.6600000000000001,-0.062817931175231934,
5.6624999999999996,-0.081689760088920593,
5.665,-0.10423978418111801,
5.6675000000000004,-0.15438835322856903,
5.6699999999999999,-0.17758747935295105,
5.6725000000000003,-0.19581019878387451,
5.6749999999999998,-0.20595531165599823,
5.6775000000000002,-0.18960773944854736,
5.6799999999999997,-0.15782615542411804,
5.6825000000000001,-0.10794202983379364,
5.6849999999999996,-0.039402447640895844,
5.6875,0.14885902404785156,
5.6900000000000004,0.26252269744873047,
5.6924999999999999,0.38272541761398315,
5.6950000000000003,0.5029761791229248,
5.6974999999999998,0.71434062719345093,
5.7000000000000002,0.79081356525421143,
5.7024999999999997,0.83939951658248901,
5.7050000000000001,0.8558192253112793,
5.7074999999999996,0.78655838966369629,
5.71,0.70470035076141357,
5.7125000000000004,0.5979844331741333,
5.7149999999999999,0.4739832878112793,
5.7175000000000002,0.20920078456401825,
5.7199999999999998,0.085824728012084961,
5.7225000000000001,-0.021756689995527267,
5.7249999999999996,-0.10849495977163315,
5.7275,-0.21119615435600281,
5.7300000000000004,-0.22881786525249481,
5.7324999999999999,-0.22821685671806335,
5.7350000000000003,-0.21400889754295349,
5.7374999999999998,-0.16479790210723877,
5.7400000000000002,-0.13859371840953827,
5.7424999999999997,-0.11556287854909897,
5.7450000000000001,-0.097388230264186859,
5.7474999999999996,-0.076617203652858734,
5.75,-0.072410106658935547,
5.7525000000000004,-0.070486865937709808,
5.7549999999999999,-0.069453120231628418,
5.7575000000000003,-0.065486431121826172,
5.7599999999999998,-0.061423581093549728,
5.7625000000000002,-0.055894255638122559,
5.7649999999999997,-0.049307148903608322,
5.7675000000000001,-0.035099189728498459,
5.7699999999999996,-0.028656324371695518,
5.7725,-0.023223161697387695,
5.7750000000000004,-0.018992027267813683,
5.7774999999999999,-0.014063715934753418,
5.7800000000000002,-0.012957851402461529,
5.7824999999999998,-0.012332797050476074,
5.7850000000000001,-0.011827945709228516,
5.7874999999999996,-0.010072986595332623,
5.79,-0.0084382295608520508,
5.7925000000000004,-0.0062265000306069851,
5.7949999999999999,-0.0034858784638345242,
5.7975000000000003,0.0030050675850361586,
5.7999999999999998,0.0063226623460650444,
5.8025000000000002,0.0094719734042882919,
5.8049999999999997,0.012236635200679302,
5.8075000000000001,0.016419690102338791,
5.8099999999999996,0.017886161804199219,
5.8125,0.019040107727050781,
5.8150000000000004,0.020049810409545898,
5.8174999999999999,0.022261541336774826,
5.8200000000000003,0.023752054199576378,
5.8224999999999998,0.025579135864973068,
5.8250000000000002,0.027790864929556847,
5.8274999999999997,0.033248066902160645,
5.8300000000000001,0.036397378891706467,
5.8324999999999996,0.039811134338378906,
5.835,0.043417215347290039,
5.8375000000000004,0.051326554268598557,
5.8399999999999999,0.055653851479291916,
5.8425000000000002,0.060221552848815918,
5.8449999999999998,0.064957544207572937,
5.8475000000000001,0.074693962931632996,
5.8499999999999996,0.079478025436401367,
5.8525,0.083997651934623718,
5.8550000000000004,0.088228784501552582,
5.8574999999999999,0.095681354403495789,
5.8600000000000003,0.099071070551872253,
5.8624999999999998,0.10243674367666245,
5.8650000000000002,0.1060187816619873,
5.8674999999999997,0.1146012544631958,
5.8700000000000001,0.11996229737997055,
5.8724999999999996,0.12609264254570007,
5.875,0.1329682320356369,
5.8775000000000004,0.14842629432678223,
5.8799999999999999,0.15652796626091003,
5.8825000000000003,0.16455750167369843,
5.8849999999999998,0.1722264289855957,
5.8875000000000002,0.18585741519927979,
5.8899999999999997,0.1915309876203537,
5.8925000000000001,0.19643525779247284,
5.8949999999999996,0.20057022571563721,
5.8975,0.20686885714530945,
5.9000000000000004,0.2091526985168457,
5.9024999999999999,0.21097978949546814,
5.9050000000000002,0.21237413585186005,
5.9074999999999998,0.21384060382843018,
5.9100000000000001,0.21386465430259705,
5.9124999999999996,0.21328768134117126,
5.915,0.21208564937114716,
5.9175000000000004,0.20732562243938446,
5.9199999999999999,0.2036474198102951,
5.9225000000000003,0.19900760054588318,
5.9249999999999998,0.19338211417198181,
5.9275000000000002,0.17905394732952118,
5.9299999999999997,0.17030319571495056,
5.9325000000000001,0.16051869094371796,
5.9349999999999996,0.14977256953716278,
5.9375,0.12568394839763641,
5.9400000000000004,0.11265397071838379,
5.9424999999999999,0.099263392388820648,
5.9450000000000003,0.085752606391906738,
5.9474999999999998,0.059476297348737717,
5.9500000000000002,0.047215621918439865,
5.9524999999999997,0.035796366631984711,
5.9550000000000001,0.025386810302734375,
5.9574999999999996,0.0075968108139932156,
5.96,7.2121620178222656e-05,
5.9625000000000004,-0.0066832704469561577,
5.9649999999999999,-0.012837648391723633,
5.9675000000000002,-0.023824175819754601,
5.9699999999999998,-0.02877652645111084,
5.9725000000000001,-0.033368270844221115,
5.9749999999999996,-0.037551324814558029,
5.9775,-0.044402878731489182,
5.9800000000000004,-0.046999257057905197,
5.9824999999999999,-0.049090784043073654,
5.9850000000000003,-0.05077362060546875,
5.9874999999999998,-0.053610406816005707,
5.9900000000000002,-0.055100917816162109,
5.9924999999999997,-0.056807797402143478,
5.9950000000000001,-0.058779120445251465,
5.9974999999999996,-0.06320258229970932,
6,-0.065294109284877777,88.073394775390625
6.0025000000000004,-0.067000985145568848,
6.0049999999999999,-0.068058773875236511,
6.0075000000000003,-0.067770287394523621,
6.0099999999999998,-0.066424012184143066,
6.0125000000000002,-0.064500771462917328,
6.0149999999999997,-0.062313079833984375,
6.0175000000000001,-0.058466594666242599,
6.0199999999999996,-0.057432852685451508,
6.0225,-0.057264566421508789,
6.0250000000000004,-0.057985782623291016,
6.0274999999999999,-0.061399541795253754,
6.0300000000000002,-0.06353914737701416,
6.0324999999999998,-0.065582595765590668,
6.0350000000000001,-0.067217350006103516,
6.0374999999999996,-0.068587660789489746,
6.04,-0.068347260355949402,
6.0425000000000004,-0.067626044154167175,
6.0449999999999999,-0.066616341471672058,
6.0475000000000003,-0.064717136323451996,
6.0499999999999998,-0.064140163362026215,
6.0525000000000002,-0.063899755477905273,
6.0549999999999997,-0.063971877098083496,
6.0575000000000001,-0.0646209716796875,
6.0599999999999996,-0.064957544207572937,
6.0625,-0.065125823020935059,
6.0650000000000004,-0.065077744424343109,
6.0674999999999999,-0.064308449625968933,
6.0700000000000003,-0.063707433640956879,
6.0724999999999998,-0.063010260462760925,
6.0750000000000002,-0.062313079833984375,
6.0774999999999997,-0.060942769050598145,
6.0800000000000001,-0.060245595872402191,
6.0824999999999996,-0.059428215026855469,
6.085,-0.058490633964538574,
6.0875000000000004,-0.055966377258300781,
6.0899999999999999,-0.054427783936262131,
6.0925000000000002,-0.05276898667216301,
6.0949999999999998,-0.051062107086181641,
6.0975000000000001,-0.048032999038696289,
6.0999999999999996,-0.046855013817548752,
6.1025,-0.045965515077114105,
6.1050000000000004,-0.045340459793806076,
6.1074999999999999,-0.044691365212202072,
6.1100000000000003,-0.044475000351667404,
6.1124999999999998,-0.044186513870954514,
6.1150000000000002,-0.043801866471767426,
6.1174999999999997,-0.042671959847211838,
6.1200000000000001,-0.041950743645429611,
6.1224999999999996,-0.041253566741943359,
6.125,-0.040628515183925629,
6.1275000000000004,-0.039787095040082932,
6.1299999999999999,-0.039618812501430511,
6.1325000000000003,-0.039546690881252289,
6.1349999999999998,-0.039498608559370041,
6.1375000000000002,-0.039234161376953125,
6.1399999999999997,-0.038873553276062012,
6.1425000000000001,-0.038320623338222504,
6.1449999999999996,-0.037599407136440277,
6.1475,-0.035916566848754883,
6.1500000000000004,-0.035099189728498459,
6.1524999999999999,-0.034402012825012207,
6.1550000000000002,-0.033873122185468674,
6.1574999999999998,-0.03351251408457756,
6.1600000000000001,-0.033608675003051758,
6.1624999999999996,-0.033873122185468674,
6.165,-0.034233730286359787,
6.1675000000000004,-0.035027068108320236,
6.1699999999999999,-0.035387676209211349,
6.1725000000000003,-0.035700201988220215,
6.1749999999999998,-0.035964649170637131,
6.1775000000000002,-0.036349296569824219,
6.1799999999999997,-0.036493539810180664,
6.1825000000000001,-0.03658970445394516,
6.1849999999999996,-0.036637783050537109,
6.1875,-0.036637783050537109,
6.1900000000000004,-0.036613743752241135,
6.1924999999999999,-0.036613743752241135,
6.1950000000000003,-0.036661826074123383,
6.1974999999999998,-0.036998391151428223,
6.2000000000000002,-0.037310920655727386,
6.2024999999999997,-0.037695568054914474,
6.2050000000000001,-0.038152337074279785,
6.2074999999999996,-0.039113961160182953,
6.21,-0.039522647857666016,
6.2125000000000004,-0.039883255958557129,
6.2149999999999999,-0.040147703140974045,
6.2175000000000002,-0.040388107299804688,
6.2199999999999998,-0.040388107299804688,
6.2225000000000001,-0.040267907083034515,
6.2249999999999996,-0.040051542222499847,
6.2275,-0.039113961160182953,
6.2300000000000004,-0.038272541016340256,
6.2324999999999999,-0.037142634391784668,
6.2350000000000003,-0.035700201988220215,
6.2374999999999998,-0.031949877738952637,
6.2400000000000002,-0.029786229133605957,
6.2424999999999997,-0.027574500069022179,
6.2450000000000001,-0.025458931922912598,
6.2474999999999996,-0.021900933235883713,
6.25,-0.020698904991149902,
6.2525000000000004,-0.019929608330130577,
6.2549999999999999,-0.019617080688476562,
6.2575000000000003,-0.020242135971784592,
6.2599999999999998,-0.021035473793745041,
6.2625000000000002,-0.022021135315299034,
6.2649999999999997,-0.02307891845703125,
6.2675000000000001,-0.02490600012242794,
6.2699999999999996,-0.025386810302734375,
6.2725,-0.025338729843497276,
6.2750000000000004,-0.024593472480773926,
6.2774999999999999,-0.020482540130615234,
6.2800000000000002,-0.016972621902823448,
6.2824999999999998,-0.01245300006121397,
6.2850000000000001,-0.007091959472745657,
6.2874999999999996,0.0051446757279336452,
6.29,0.011275013908743858,
6.2925000000000004,0.016804337501525879,
6.2949999999999999,0.021299919113516808,
6.2975000000000003,0.025603175163269043,
6.2999999999999998,0.024930041283369064,
6.3025000000000002,0.022285580635070801,
6.3049999999999997,0.017814040184020996,
6.3075000000000001,0.0046638650819659233,
6.3099999999999996,-0.0031493108253926039,
6.3125,-0.011130770668387413,
6.3150000000000004,-0.018823742866516113,
6.3174999999999999,-0.031925838440656662,
6.3200000000000003,-0.036830108612775803,
6.3224999999999998,-0.040580432862043381,
6.3250000000000002,-0.043224893510341644,
6.3274999999999997,-0.045917432755231857,
6.3300000000000001,-0.046494405716657639,
6.3324999999999996,-0.046879053115844727,
6.335,-0.047311782836914062,
6.3375000000000004,-0.048634015023708344,
6.3399999999999999,-0.049451392143964767,
6.3425000000000002,-0.050172608345746994,
6.3449999999999998,-0.050509177148342133,
6.3475000000000001,-0.049090784043073654,
6.3499999999999996,-0.04707137867808342,
6.3525,-0.044258635491132736,
6.3550000000000004,-0.041085284203290939,
6.3574999999999999,-0.036253135651350021,
6.3600000000000003,-0.036397378891706467,
6.3624999999999998,-0.039570730179548264,
6.3650000000000002,-0.046614609658718109,
6.3674999999999997,-0.074237190186977386,
6.3700000000000001,-0.094623565673828125,
6.3724999999999996,-0.11830350011587143,
6.375,-0.14373838901519775,
6.3775000000000004,-0.19080977141857147,
6.3799999999999999,-0.2069169282913208,
6.3825000000000003,-0.21398484706878662,
6.3849999999999998,-0.2090565413236618,
6.3875000000000002,-0.15304207801818848,
6.3899999999999997,-0.098590254783630371,
6.3925000000000001,-0.025939743965864182,
6.3949999999999996,0.063755512237548828,
6.3975,0.28252443671226501,
6.4000000000000004,0.4021742045879364,
6.4024999999999999,0.52033346891403198,
6.4050000000000002,0.62986218929290771,
6.4074999999999998,0.79410713911056519,
6.4100000000000001,0.83637040853500366,
6.4124999999999996,0.84629917144775391,
6.415,0.82235479354858398,
6.4175000000000004,0.67936164140701294,
6.4199999999999999,0.56976079940795898,
6.4225000000000003,0.44436535239219666,
6.4249999999999998,0.31180581450462341,
6.4275000000000002,0.05983690544962883,
6.4299999999999997,-0.04478752613067627,
6.4325000000000001,-0.12832841277122498,
6.4349999999999996,-0.18842975795269012,
6.4375,-0.24047753214836121,
6.4400000000000004,-0.23816964030265808,
6.4424999999999999,-0.22278368473052979,
6.4450000000000003,-0.19924800097942352,
6.4474999999999998,-0.1453731507062912,
6.4500000000000002,-0.12162109464406967,
6.4524999999999997,-0.10250886529684067,
6.4550000000000001,-0.088565349578857422,
6.4574999999999996,-0.073876582086086273,
6.46,-0.070943638682365417,
6.4625000000000004,-0.069260798394680023,
6.4649999999999999,-0.067794322967529297,
6.4675000000000002,-0.062938138842582703,
6.4699999999999998,-0.059187810868024826,
6.4725000000000001,-0.054740309715270996,
6.4749999999999996,-0.049884121865034103,
6.4775,-0.040388107299804688,
6.4800000000000004,-0.036229096353054047,
6.4824999999999999,-0.032574933022260666,
6.4850000000000003,-0.029449662193655968,
6.4874999999999998,-0.024473270401358604,
6.4900000000000002,-0.022381743416190147,
6.4924999999999997,-0.020482540130615234,
6.4950000000000001,-0.018679499626159668,
6.4974999999999996,-0.015265743248164654,
6.5,-0.013558864593505859,
6.5025000000000004,-0.011779865249991417,
6.5049999999999999,-0.0098806619644165039,
6.5075000000000003,-0.0055052838288247585,
6.5099999999999998,-0.0030050675850361586,
6.5125000000000002,-0.000312527030473575,
6.5149999999999997,0.0025002162437886,
6.5175000000000001,0.0080054998397827148,
6.5199999999999996,0.010481676086783409,
6.5225,0.012669364921748638,
6.5250000000000004,0.014568567276000977,
6.5274999999999999,0.017693838104605675,
6.5300000000000002,0.019160311669111252,
6.5324999999999998,0.020722946152091026,
6.5350000000000001,0.022574067115783691,
6.5374999999999996,0.027382176369428635,
6.54,0.030435323715209961,
6.5425000000000004,0.033873122185468674,
6.5449999999999999,0.037575364112854004,
6.5475000000000003,0.045460663735866547,
6.5499999999999998,0.049427352845668793,
6.5525000000000002,0.053297877311706543,
6.5549999999999997,0.057072244584560394,
6.5575000000000001,0.064452692866325378,
6.5599999999999996,0.06815493106842041,
6.5625,0.071977376937866211,
6.5650000000000004,0.07601618766784668,
6.5674999999999999,0.085103511810302734,
6.5700000000000003,0.090224146842956543,
6.5724999999999998,0.095777511596679688,
6.5750000000000002,0.10171552747488022,
6.5774999999999997,0.11457721889019012,
6.5800000000000001,0.12128452956676483,
6.5824999999999996,0.12801587581634521,
6.585,0.1346510648727417,
6.5875000000000004,0.14734447002410889,
6.5899999999999999,0.15325844287872314,
6.5925000000000002,0.15888392925262451,
6.5949999999999998,0.16424497961997986,
6.5975000000000001,0.17429392039775848,
6.5999999999999996,0.17905394732952118,
6.6025,0.18362164497375488,
6.6050000000000004,0.18799702823162079,
6.6074999999999999,0.19561788439750671,
6.6100000000000003,0.1986229419708252,
6.6124999999999998,0.20090679824352264,
6.6150000000000002,0.20232519507408142,
6.6174999999999997,0.2022530734539032,
6.6200000000000001,0.20073851943016052,
6.6224999999999996,0.19828638434410095,
6.625,0.19499282538890839,
6.6275000000000004,0.18629014492034912,
6.6299999999999999,0.18097719550132751,
6.6325000000000003,0.17506322264671326,
6.6349999999999998,0.16847610473632812,
6.6375000000000002,0.15294592082500458,
6.6399999999999997,0.1437864750623703,
6.6425000000000001,0.13354520499706268,
6.6449999999999996,0.1222461462020874,
6.6475,0.096739135682582855,
6.6500000000000004,0.082915827631950378,
6.6524999999999999,0.068731904029846191,
6.6550000000000002,0.054499905556440353,
6.6574999999999998,0.027286013588309288,
6.6600000000000001,0.014881094917654991,
6.6624999999999996,0.0035339593887329102,
6.665,-0.006659229751676321,
6.6675000000000004,-0.02353568933904171,
6.6699999999999999,-0.030363202095031738,
6.6725000000000003,-0.036325257271528244,
6.6749999999999998,-0.041566096246242523,
6.6775000000000002,-0.05043705552816391,
6.6799999999999997,-0.05430757999420166,
6.6825000000000001,-0.057865582406520844,
6.6849999999999996,-0.061183176934719086,
6.6875,-0.067121192812919617,
6.6900000000000004,-0.069717571139335632,
6.6924999999999999,-0.072049498558044434,
6.6950000000000003,-0.074141025543212891,
6.6974999999999998,-0.077602863311767578,
6.7000000000000002,-0.078973174095153809,
6.7024999999999997,-0.080175206065177917,
6.7050000000000001,-0.082026325166225433,
6.7074999999999996,-0.08269946277141571,
6.71,-0.083204314112663269,
6.7125000000000004,-0.083613000810146332,
6.7149999999999999,-0.083877444267272949,
6.7175000000000002,-0.084189973771572113,
6.7199999999999998,-0.084334217011928558,
6.7225000000000001,-0.084478460252285004,
6.7249999999999996,-0.084694825112819672,
6.7275,-0.085416041314601898,
6.7300000000000004,-0.085896849632263184,
6.7324999999999999,-0.086497865617275238,
6.7350000000000003,-0.087122917175292969,
6.7374999999999998,-0.088517270982265472,
6.7400000000000002,-0.08919040858745575,
6.7424999999999997,-0.08981546014547348,
6.7450000000000001,-0.090344354510307312,
6.7474999999999996,-0.090921327471733093,
6.75,-0.09089728444814682,
6.7525000000000004,-0.090608797967433929,
6.7549999999999999,-0.089214444160461426,
6.7575000000000003,-0.088156662881374359,
6.7599999999999998,-0.086978673934936523,
6.7625000000000002,-0.085776649415493011,
6.7649999999999997,-0.084670782089233398,
6.7675000000000001,-0.083276435732841492,
6.7699999999999996,-0.083180271089076996,
6.7725,-0.083468757569789886,
6.7750000000000004,-0.08416593074798584,
6.7774999999999999,-0.08628150075674057,
6.7800000000000002,-0.087411403656005859,
6.7824999999999998,-0.088348984718322754,
6.7850000000000001,-0.089142322540283203,
6.7874999999999996,-0.088829800486564636,
6.79,-0.088012419641017914,
6.7925000000000004,-0.086738273501396179,
6.7949999999999999,-0.083228349685668945,
6.7975000000000003,-0.081232987344264984,
6.7999999999999998,-0.079237625002861023,
6.8025000000000002,-0.077338419854640961,
6.8049999999999997,-0.074092946946620941,
6.8075000000000001,-0.072818800806999207,
6.8099999999999996,-0.071761012077331543,
6.8125,-0.070895552635192871,
6.8150000000000004,-0.070198379456996918,
6.8174999999999999,-0.069044433534145355,
6.8200000000000003,-0.068491503596305847,
6.8224999999999998,-0.067938566207885742,
6.8250000000000002,-0.067337557673454285,
6.8274999999999997,-0.06599128246307373,
6.8300000000000001,-0.065246030688285828,
6.8324999999999996,-0.064500771462917328,
6.835,-0.063731476664543152,
6.8375000000000004,-0.062361162155866623,
6.8399999999999999,-0.061736106872558594,
6.8425000000000002,-0.06120721623301506,
6.8449999999999998,-0.060726404190063477,
6.8475000000000001,-0.05983690544962883,
6.8499999999999996,-0.059404175728559494,
6.8525,-0.058947406709194183,
6.8550000000000004,-0.057937704026699066,
6.8574999999999999,-0.057408809661865234,
6.8600000000000003,-0.056879919022321701,
6.8624999999999998,-0.056351028382778168,
6.8650000000000002,-0.055437486618757248,
6.8674999999999997,-0.055028796195983887,
6.8700000000000001,-0.054644148796796799,
6.8724999999999996,-0.054235458374023438,
6.875,-0.053297877311706543,
6.8775000000000004,-0.05276898667216301,
6.8799999999999999,-0.052192013710737228,
6.8825000000000003,-0.051591001451015472,
6.8849999999999998,-0.051038067787885666,
6.8875000000000002,-0.050268769264221191,
6.8899999999999997,-0.050148569047451019,
6.8925000000000001,-0.050244729965925217,
6.8949999999999996,-0.051062107086181641,
6.8975,-0.051711201667785645,
6.9000000000000004,-0.052456460893154144,
6.9024999999999999,-0.053201716393232346,
6.9050000000000002,-0.054355662316083908,
6.9074999999999998,-0.054668188095092773,
6.9100000000000001,-0.054764352738857269,
6.9124999999999996,-0.054620109498500824,
6.915,-0.053826771676540375,
6.9175000000000004,-0.053321920335292816,
6.9199999999999999,-0.052817068994045258,
6.9225000000000003,-0.052360296249389648,
6.9249999999999998,-0.051783323287963867,
6.9275000000000002,-0.051639080047607422,
6.9299999999999997,-0.051542919129133224,
6.9325000000000001,-0.051446758210659027,
6.9349999999999996,-0.051038067787885666,
6.9375,-0.050677459686994553,
6.9400000000000004,-0.050220690667629242,
6.9424999999999999,-0.04969179630279541,
6.9450000000000003,-0.048754215240478516,
6.9474999999999998,-0.048489771783351898,
6.9500000000000002,-0.048369567841291428,
6.9524999999999997,-0.04844168946146965,
6.9550000000000001,-0.048826336860656738,
6.9574999999999996,-0.048898458480834961,
6.96,-0.048658054322004318,
6.9625000000000004,-0.04798492044210434,
6.9649999999999999,-0.04490773007273674,
6.9675000000000002,-0.04245559498667717,
6.9699999999999998,-0.039498608559370041,
6.9725000000000001,-0.036229096353054047,
6.9749999999999996,-0.029786229133605957,
6.9775,-0.027189850807189941,
6.9800000000000004,-0.025338729843497276,
6.9824999999999999,-0.024425189942121506,
6.9850000000000003,-0.025627216324210167,
6.9874999999999998,-0.027574500069022179,
6.9900000000000002,-0.030098756775259972,
6.9924999999999997,-0.032911501824855804,
6.9950000000000001,-0.037911932915449142,
6.9974999999999996,-0.039402447640895844,
7,-0.039835177361965179,87.136932373046875
7.0025000000000004,-0.03904183954000473,
7.0049999999999999,-0.03692626953125,
7.0075000000000003,-0.028944810852408409,
7.0099999999999998,-0.023415487259626389,
7.0125000000000002,-0.01721302792429924,
7.0149999999999997,-0.0040147705003619194,
7.0175000000000001,0.002283851383253932,
7.0199999999999996,0.0078852977603673935,
7.0225,0.012549161911010742,
7.0250000000000004,0.017982324585318565,
7.0274999999999999,0.018415054306387901,
7.0300000000000002,0.017261108383536339,
7.0324999999999998,0.014496445655822754,
7.0350000000000001,0.0048081083223223686,
7.0374999999999996,-0.0016587972640991211,
7.04,-0.008822878822684288,
7.0425000000000004,-0.016323527321219444,
7.0449999999999999,-0.030868053436279297,
7.0475000000000003,-0.037286877632141113,
7.0499999999999998,-0.042840242385864258,
7.0525000000000002,-0.047383904457092285,
7.0549999999999997,-0.053418081253767014,
7.0575000000000001,-0.055149000138044357,
7.0599999999999996,-0.05630294606089592,
7.0625,-0.057072244584560394,
7.0650000000000004,-0.058250229805707932,
7.0674999999999999,-0.058827202767133713,
7.0700000000000003,-0.059308014810085297,
7.0724999999999998,-0.059572458267211914,
7.0750000000000002,-0.058442555367946625,
7.0774999999999997,-0.056663554161787033,
7.0800000000000001,-0.05401909351348877,
7.0824999999999996,-0.050677459686994553,
7.085,-0.043849945068359375,
7.0875000000000004,-0.041902661323547363,
7.0899999999999999,-0.042239230126142502,
7.0925000000000002,-0.045845311135053635,
7.0949999999999998,-0.065967246890068054,
7.0975000000000001,-0.083132192492485046,
7.0999999999999996,-0.10457634925842285,
7.1025,-0.12931406497955322,
7.1050000000000004,-0.18126568198204041,
7.1074999999999999,-0.20362338423728943,
7.1100000000000003,-0.21968245506286621,
7.1124999999999998,-0.22641381621360779,
7.1150000000000002,-0.20047406852245331,
7.1174999999999997,-0.16323527693748474,
7.1200000000000001,-0.10799010843038559,
7.1224999999999996,-0.034666460007429123,
7.125,0.16042253375053406,
7.1275000000000004,0.27579307556152344,
7.1299999999999999,0.39662083983421326,
7.1325000000000003,0.51660716533660889,
7.1349999999999998,0.72595220804214478,
7.1375000000000002,0.80124717950820923,
7.1399999999999997,0.84887146949768066,
7.1425000000000001,0.86471420526504517,
7.1449999999999996,0.79538130760192871,
7.1475,0.71376365423202515,
7.1500000000000004,0.60726404190063477,
7.1524999999999999,0.48311871290206909,
7.1550000000000002,0.21631678938865662,
7.1574999999999998,0.090801119804382324,
7.1600000000000001,-0.019593041390180588,
7.1624999999999996,-0.10974507033824921,
7.165,-0.22001902759075165,
7.1675000000000004,-0.24115066230297089,
7.1699999999999999,-0.24343451857566833,
7.1725000000000003,-0.23124596476554871,
7.1749999999999998,-0.18266002833843231,
7.1775000000000002,-0.15506148338317871,
7.1799999999999997,-0.12969872355461121,
7.1825000000000001,-0.10851900279521942,
7.1849999999999996,-0.081184908747673035,
7.1875,-0.074189111590385437,
7.1900000000000004,-0.070294544100761414,
7.1924999999999999,-0.068227052688598633,
7.1950000000000003,-0.065510474145412445,
7.1974999999999998,-0.063491068780422211,
7.2000000000000002,-0.060702364891767502,
7.2024999999999997,-0.057144366204738617,
7.2050000000000001,-0.048826336860656738,
7.2074999999999996,-0.044643282890319824,
7.21,-0.040772758424282074,
7.2125000000000004,-0.037310920655727386,
7.2149999999999999,-0.031733512878417969,
7.2175000000000002,-0.029497742652893066,
7.2199999999999998,-0.027430256828665733,
7.2225000000000001,-0.025482973083853722,
7.2249999999999996,-0.021588405594229698,
7.2275,-0.019569000229239464,
7.2300000000000004,-0.017525553703308105,
7.2324999999999999,-0.015482108108699322,
7.2350000000000003,-0.011515418998897076,
7.2374999999999998,-0.0096402568742632866,
7.2400000000000002,-0.0078372163698077202,
7.2424999999999997,-0.0061062974855303764,
7.2450000000000001,-0.0026684999465942383,
7.2474999999999996,-0.00086545944213867188,
7.25,0.0010577838402241468,
7.2525000000000004,0.0031733512878417969,
7.2549999999999999,0.0080054998397827148,
7.2575000000000003,0.0107701625674963,
7.2599999999999998,0.013727148994803429,
7.2625000000000002,0.016852419823408127,
7.2649999999999997,0.02353568933904171,
7.2675000000000001,0.026973485946655273,
7.2699999999999996,0.030435323715209961,
7.2725,0.033873122185468674,
7.2750000000000004,0.040580432862043381,
7.2774999999999999,0.043801866471767426,
7.2800000000000002,0.046951174736022949,
7.2824999999999998,0.050028365105390549,
7.2850000000000001,0.056206785142421722,
7.2874999999999996,0.059428215026855469,
7.29,0.06286601722240448,
7.2925000000000004,0.066640377044677734,
7.2949999999999999,0.075391136109828949,
7.2975000000000003,0.080487728118896484,
7.2999999999999998,0.086065135896205902,
7.3025000000000002,0.092099308967590332,
7.3049999999999997,0.1053696870803833,
7.3075000000000001,0.11246164888143539,
7.3099999999999996,0.11974593251943588,
7.3125,0.12715041637420654,
7.3150000000000004,0.1346510648727417,
7.3174999999999999,0.1497485339641571,
7.3200000000000003,0.15720109641551971,
7.3224999999999998,0.1644853800535202,
7.3250000000000002,0.17821252346038818,
7.3274999999999997,0.18441498279571533,
7.3300000000000001,0.19001643359661102,
7.3324999999999996,0.19492070376873016,
7.335,0.20251750946044922,
7.3375000000000004,0.20521005988121033,
7.3399999999999999,0.20722946524620056,
7.3425000000000002,0.20867189764976501,
7.3449999999999998,0.21011433005332947,
7.3475000000000001,0.21023452281951904,
7.3499999999999996,0.20994603633880615,
7.3525,0.20917674899101257,
7.3550000000000004,0.20585915446281433,
7.3574999999999999,0.20304641127586365,
7.3600000000000003,0.19924800097942352,
7.3624999999999998,0.19439181685447693,
7.3650000000000002,0.18119356036186218,
7.3674999999999997,0.17277936637401581,
7.3700000000000001,0.16318719089031219,
7.3724999999999996,0.15248915553092957,
7.375,0.12813608348369598,
7.3775000000000004,0.11472146213054657,
7.3799999999999999,0.1007058247923851,
7.3825000000000003,0.08628150075674057,
7.3849999999999998,0.071664854884147644,
7.3875000000000002,0.042840242385864258,
7.3899999999999997,0.029137134552001953,
7.3925000000000001,0.016275446861982346,
7.3949999999999996,-0.0063467025756835938,
7.3975,-0.015866756439208984,
7.4000000000000004,-0.024184783920645714,
7.4024999999999999,-0.031372904777526855,
7.4050000000000002,-0.04291236400604248,
7.4074999999999998,-0.047624312341213226,
7.4100000000000001,-0.051831405609846115,
7.4124999999999996,-0.055677890777587891,
7.415,-0.062577530741691589,
7.4175000000000004,-0.06565471738576889,
7.4199999999999999,-0.068467460572719574,
7.4225000000000003,-0.070919595658779144,
7.4249999999999998,-0.074742041528224945,
7.4275000000000002,-0.076088309288024902,
7.4299999999999997,-0.077122054994106293,
7.4325000000000001,-0.077915392816066742,
7.4349999999999996,-0.079117417335510254,
7.4375,-0.079670354723930359,
7.4400000000000004,-0.080271363258361816,
7.4424999999999999,-0.080896422266960144,
7.4450000000000003,-0.081954203546047211,
7.4474999999999998,-0.082194611430168152,
7.4500000000000002,-0.082170568406581879,
7.4524999999999997,-0.081785917282104492,
7.4550000000000001,-0.079982876777648926,
7.4574999999999996,-0.078756809234619141,
7.46,-0.077458620071411133,
7.4625000000000004,-0.07630467414855957,
7.4649999999999999,-0.074910327792167664,
7.4675000000000002,-0.074862241744995117,
7.4699999999999998,-0.075246892869472504,
7.4725000000000001,-0.07601618766784668,
7.4749999999999996,-0.07808367908000946,
7.4775,-0.079021260142326355,
7.4800000000000004,-0.079718433320522308,
7.4824999999999999,-0.080006919801235199,
7.4850000000000003,-0.079357825219631195,
7.4874999999999998,-0.078516408801078796,
7.4900000000000002,-0.077482663094997406,
7.4924999999999997,-0.076400838792324066,
7.4950000000000001,-0.074645876884460449,
7.4974999999999996,-0.074165068566799164,
7.5,-0.073972746729850769,
7.5025000000000004,-0.074020825326442719,
7.5049999999999999,-0.074477598071098328,
7.5075000000000003,-0.074645876884460449,
7.5099999999999998,-0.074645876884460449,
7.5125000000000002,-0.074381433427333832,
7.5149999999999997,-0.073155365884304047,
7.5175000000000001,-0.072337985038757324,
7.5199999999999996,-0.071496568620204926,
7.5225,-0.070751309394836426,
7.5250000000000004,-0.070222422480583191,
7.5274999999999999,-0.069813728332519531,
7.5300000000000002,-0.069885849952697754,
7.5324999999999998,-0.070006057620048523,
7.5350000000000001,-0.069837771356105804,
7.5374999999999996,-0.069308876991271973,
7.54,-0.068371295928955078,
7.5425000000000004,-0.06707310676574707,
7.5449999999999999,-0.063635312020778656,
7.5475000000000003,-0.061808228492736816,
7.5499999999999998,-0.060173474252223969,
7.5525000000000002,-0.058851242065429688,
7.5549999999999997,-0.057577095925807953,
7.5575000000000001,-0.057697296142578125,
7.5599999999999996,-0.058226190507411957,
7.5625,-0.059043567627668381,
7.5650000000000004,-0.060822568833827972,
7.5674999999999999,-0.061447620391845703,
7.5700000000000003,-0.061736106872558594,
7.5724999999999998,-0.061567824333906174,
7.5750000000000002,-0.059884987771511078,
7.5774999999999997,-0.058514676988124847,
7.5800000000000001,-0.056928001344203949,
7.5824999999999996,-0.055269204080104828,
7.585,-0.052216053009033203,
7.5875000000000004,-0.051062107086181641,
7.5899999999999999,-0.050196647644042969,
7.5925000000000002,-0.049643717706203461,
7.5949999999999998,-0.049379270523786545,
7.5975000000000001,-0.049547553062438965,
7.5999999999999996,-0.049763917922973633,
7.6025,-0.050028365105390549,
7.6050000000000004,-0.050340890884399414,
7.6074999999999999,-0.050340890884399414,
7.6100000000000003,-0.050220690667629242,
7.6124999999999998,-0.050004325807094574,
7.6150000000000002,-0.049307148903608322,
7.6174999999999997,-0.048922501504421234,
7.6200000000000001,-0.048513811081647873,
7.6224999999999996,-0.04815320298075676,
7.625,-0.047600269317626953,
7.6275000000000004,-0.047407947480678558,
7.6299999999999999,-0.047263704240322113,
7.6325000000000003,-0.047167539596557617,
7.6349999999999998,-0.046975217759609222,
7.6375000000000002,-0.046806931495666504,
7.6399999999999997,-0.046590566635131836,
7.6425000000000001,-0.046278040856122971,
7.6449999999999996,-0.045436620712280273,
7.6475,-0.044931769371032715,
7.6500000000000004,-0.044402878731489182,
7.6524999999999999,-0.043946109712123871,
7.6550000000000002,-0.043248932808637619,
7.6574999999999998,-0.043104689568281174,
7.6600000000000001,-0.043056607246398926,
7.6624999999999996,-0.043104689568281174,
7.665,-0.043297015130519867,
7.6675000000000004,-0.043345093727111816,
7.6699999999999999,-0.043321054428815842,
7.6725000000000003,-0.043152771890163422,
7.6749999999999998,-0.042527716606855392,
7.6775000000000002,-0.042119026184082031,
7.6799999999999997,-0.041710339486598969,
7.6825000000000001,-0.04137377068400383,
7.6849999999999996,-0.040989123284816742,
7.6875,-0.040989123284816742,
7.6900000000000004,-0.041085284203290939,
7.6924999999999999,-0.04120548814535141,
7.6950000000000003,-0.041277609765529633,
7.6974999999999998,-0.041061244904994965,
