Data Set 1:Time(s),Data Set 1:EKG(mV),Data Set 1:Heart Rate(bpm)
0,0,69.970848083496094
0.02,0,
0.040000000000000001,0,
0.059999999999999998,0,
0.080000000000000002,0,
0.10000000000000001,0,
0.12,0,
0.14000000000000001,-0.18792490661144257,
0.16,-0.092387795448303223,
0.17999999999999999,-0.059332054108381271,
0.20000000000000001,-0.039666891098022461,
0.22,-0.027165811508893967,
0.23999999999999999,7.2121620178222656e-05,
0.26000000000000001,0.044426918029785156,
0.28000000000000003,0.11024992167949677,
0.29999999999999999,0.17003874480724335,
0.32000000000000001,0.16780297458171844,
0.34000000000000002,0.083853408694267273,
0.35999999999999999,-0.031156539916992188,
0.38,-0.094863973557949066,
0.40000000000000002,-0.11051436513662338,
0.41999999999999998,-0.10623514652252197,
0.44,-0.1036868542432785,
0.46000000000000002,-0.10594666004180908,
0.47999999999999998,-0.09875854104757309,
0.5,-0.10183572769165039,
0.52000000000000002,-0.10517736524343491,
0.54000000000000004,-0.08769989013671875,
0.56000000000000005,-0.072241827845573425,
0.57999999999999996,-0.07277071475982666,
0.59999999999999998,-0.074044868350028992,
0.62,-0.059812866151332855,
0.64000000000000001,-0.055653851479291916,
0.66000000000000003,-0.045941472053527832,
0.68000000000000005,-0.046013593673706055,
0.69999999999999996,-0.019977688789367676,
0.71999999999999997,-0.0021155676804482937,
0.73999999999999999,-0.039739012718200684,
0.76000000000000001,-0.057601135224103928,
0.78000000000000003,-0.150686115026474,
0.80000000000000004,-0.086906552314758301,
0.81999999999999995,0.58500254154205322,
0.83999999999999997,0.36959928274154663,
0.85999999999999999,-0.18511216342449188,
0.88,-0.12760719656944275,
0.90000000000000002,-0.057961743324995041,
0.92000000000000004,-0.052504539489746094,
0.93999999999999995,-0.038200419396162033,
0.95999999999999996,-0.0076208515092730522,
0.97999999999999998,0.028295716270804405,
1,0.076881647109985352,65.934066772460938
1.02,0.1453731507062912,
1.04,0.17701050639152527,
1.0600000000000001,0.13025164604187012,
1.0800000000000001,0.021420121192932129,
1.1000000000000001,-0.074020825326442719,
1.1200000000000001,-0.11000951379537582,
1.1399999999999999,-0.10722081363201141,
1.1599999999999999,-0.10399937629699707,
1.1799999999999999,-0.10945658385753632,
1.2,-0.10717272758483887,
1.22,-0.10544180870056152,
1.24,-0.095344781875610352,
1.26,-0.084214016795158386,
1.28,-0.082675419747829437,
1.3,-0.077482663094997406,
1.3200000000000001,-0.075992152094841003,
1.3400000000000001,-0.072890922427177429,
1.3600000000000001,-0.07168889045715332,
1.3799999999999999,-0.062072675675153732,
1.3999999999999999,-0.054716270416975021,
1.4199999999999999,-0.035459797829389572,
1.4399999999999999,-0.020218094810843468,
1.46,-0.055846177041530609,
1.48,-0.074982449412345886,
1.5,-0.15107075870037079,
1.52,-0.11306266486644745,
1.54,0.51764094829559326,
1.5600000000000001,0.36438247561454773,
1.5800000000000001,-0.18217921257019043,
1.6000000000000001,-0.14015635848045349,
1.6200000000000001,-0.074285268783569336,
1.6399999999999999,-0.060029231011867523,
1.6599999999999999,-0.035700201988220215,
1.6799999999999999,-0.012837648391723633,
1.7,0.019448798149824142,
1.72,0.071761012077331543,
1.74,0.13292014598846436,
1.76,0.16071102023124695,
1.78,0.12123644351959229,
1.8,0.014039675705134869,
1.8200000000000001,-0.071664854884147644,
1.8400000000000001,-0.11041820049285889,
1.8600000000000001,-0.11493782699108124,
1.8799999999999999,-0.10693232715129852,
1.8999999999999999,-0.10974507033824921,
1.9199999999999999,-0.12157301604747772,
1.9399999999999999,-0.10734101384878159,
1.96,-0.095200538635253906,
1.98,-0.086017057299613953,
2,-0.076280638575553894,73.770492553710938
2.02,-0.079718433320522308,
2.04,-0.072987079620361328,
2.0600000000000001,-0.071568690240383148,
2.0800000000000001,-0.074020825326442719,
2.1000000000000001,-0.073804460465908051,
2.1200000000000001,-0.06216883659362793,
2.1400000000000001,-0.055870216339826584,
2.1600000000000001,-0.049210987985134125,
2.1800000000000002,-0.022958716377615929,
2.2000000000000002,-0.03031512163579464,
2.2200000000000002,-0.067409679293632507,
2.2400000000000002,-0.083949565887451172,
2.2599999999999998,-0.19328594207763672,
2.2799999999999998,0.13573288917541504,
2.2999999999999998,0.6239241361618042,
2.3199999999999998,0.057480931282043457,
2.3399999999999999,-0.20528218150138855,
2.3599999999999999,-0.10190784931182861,
2.3799999999999999,-0.063731476664543152,
2.3999999999999999,-0.046710770577192307,
2.4199999999999999,-0.02815147303044796,
2.4399999999999999,-0.0062505407258868217,
2.46,0.031156539916992188,
2.48,0.098686419427394867,
2.5,0.16073505580425262,
2.52,0.16042253375053406,
2.54,0.091089606285095215,
2.5600000000000001,-0.021107595413923264,
2.5800000000000001,-0.088565349578857422,
2.6000000000000001,-0.10409554094076157,
2.6200000000000001,-0.10823051631450653,
2.6400000000000001,-0.1084468811750412,
2.6600000000000001,-0.10520140826702118,
2.6800000000000002,-0.10580241680145264,
2.7000000000000002,-0.098878741264343262,
2.7200000000000002,-0.091161727905273438,
2.7400000000000002,-0.089022122323513031,
2.7599999999999998,-0.069621406495571136,
2.7799999999999998,-0.066592298448085785,
2.7999999999999998,-0.07346789538860321,
2.8199999999999998,-0.069212719798088074,
2.8399999999999999,-0.070462822914123535,
2.8599999999999999,-0.064789257943630219,
2.8799999999999999,-0.058178108185529709,
2.8999999999999999,-0.050797663629055023,
2.9199999999999999,-0.050509177148342133,
2.9399999999999999,-0.024377107620239258,
2.96,0.00081737840082496405,
2.98,-0.044931769371032715,
3,-0.065678760409355164,72.580642700195312
3.02,-0.14176706969738007,
3.04,-0.092748403549194336,
3.0600000000000001,0.55293244123458862,
3.0800000000000001,0.38524967432022095,
3.1000000000000001,-0.1639324426651001,
3.1200000000000001,-0.11900067329406738,
3.1400000000000001,-0.062192879617214203,
3.1600000000000001,-0.041854582726955414,
3.1800000000000002,-0.019809406250715256,
3.2000000000000002,0.0015145540237426758,
3.2200000000000002,0.028704404830932617,
3.2400000000000002,0.087098881602287292,
3.2599999999999998,0.15847525000572205,
3.2799999999999998,0.19867102801799774,
3.2999999999999998,0.15739342570304871,
3.3199999999999998,0.040099620819091797,
3.3399999999999999,-0.043272972106933594,
3.3599999999999999,-0.085848771035671234,
3.3799999999999999,-0.10046541690826416,
3.3999999999999999,-0.099816322326660156,
3.4199999999999999,-0.089358687400817871,
3.4399999999999999,-0.08810858428478241,
3.46,-0.096402570605278015,
3.48,-0.089358687400817871,
3.5,-0.079886719584465027,
3.52,-0.074645876884460449,
3.54,-0.069140598177909851,
3.5600000000000001,-0.060678325593471527,
3.5800000000000001,-0.064452692866325378,
3.6000000000000001,-0.055966377258300781,
3.6200000000000001,-0.053081512451171875,
3.6400000000000001,-0.051062107086181641,
3.6600000000000001,-0.039594769477844238,
3.6800000000000002,-0.03829658031463623,
3.7000000000000002,-0.036421418190002441,
3.7200000000000002,-0.00014424324035644531,
3.7400000000000002,0.009135405533015728,
3.7599999999999998,-0.028560161590576172,
3.7799999999999998,-0.044234596192836761,
3.7999999999999998,-0.12142877280712128,
3.8199999999999998,-0.078300043940544128,
3.8399999999999999,0.57846349477767944,
3.8599999999999999,0.39311093091964722,
3.8799999999999999,-0.16977429389953613,
3.8999999999999999,-0.11243760585784912,
3.9199999999999999,-0.045701067894697189,
3.9399999999999999,-0.031805634498596191,
3.96,-0.0055774054490029812,
3.98,0.01538594625890255,
4,0.04228731244802475,72.289154052734375
4.0199999999999996,0.10246078670024872,
4.04,0.169149249792099,
4.0599999999999996,0.20554661750793457,
4.0800000000000001,0.16893288493156433,
4.0999999999999996,0.053586363792419434,
4.1200000000000001,-0.037190716713666916,
4.1399999999999997,-0.082122489809989929,
4.1600000000000001,-0.086017057299613953,
4.1799999999999997,-0.081569552421569824,
4.2000000000000002,-0.078973174095153809,
4.2199999999999998,-0.078901052474975586,
4.2400000000000002,-0.076448917388916016,
4.2599999999999998,-0.069957971572875977,
4.2800000000000002,-0.053658485412597656,
4.2999999999999998,-0.049042701721191406,
4.3200000000000003,-0.047263704240322113,
4.3399999999999999,-0.050797663629055023,
4.3600000000000003,-0.046181879937648773,
4.3799999999999999,-0.04707137867808342,
4.4000000000000004,-0.053514242172241211,
4.4199999999999999,-0.036950312554836273,
4.4400000000000004,-0.028632283210754395,
4.46,-0.017140906304121017,
4.4800000000000004,0.011443297378718853,
4.5,-0.017645757645368576,
4.5199999999999996,-0.039979420602321625,
4.54,-0.11267801374197006,
4.5599999999999996,-0.10981719195842743,
4.5800000000000001,0.44008612632751465,
4.5999999999999996,0.50254344940185547,
4.6200000000000001,-0.15054187178611755,
4.6399999999999997,-0.12022674083709717,
4.6600000000000001,-0.042695999145507812,
4.6799999999999997,-0.016876459121704102,
4.7000000000000002,-0.0056976079940795898,
4.7199999999999998,0.0056014461442828178,
4.7400000000000002,0.04940330982208252,
4.7599999999999998,0.097051665186882019,
4.7800000000000002,0.17104844748973846,
4.7999999999999998,0.21355211734771729,
4.8200000000000003,0.1747506856918335,
4.8399999999999999,0.068010687828063965,
4.8600000000000003,-0.031829677522182465,
4.8799999999999999,-0.07630467414855957,
4.9000000000000004,-0.093878313899040222,
4.9199999999999999,-0.089358687400817871,
4.9400000000000004,-0.084358260035514832,
4.96,-0.090512633323669434,
4.9800000000000004,-0.088565349578857422,
5,-0.07671336829662323,69.097885131835938
5.0199999999999996,-0.063635312020778656,
5.04,-0.052744947373867035,
5.0599999999999996,-0.056230824440717697,
5.0800000000000001,-0.059332054108381271,
5.0999999999999996,-0.059788823127746582,
5.1200000000000001,-0.055750012397766113,
5.1399999999999997,-0.051014028489589691,
5.1600000000000001,-0.047912798821926117,
5.1799999999999997,-0.047383904457092285,
5.2000000000000002,-0.03800809383392334,
5.2199999999999998,-0.022045176476240158,
5.2400000000000002,0.0061784191057085991,
5.2599999999999998,-0.016852419823408127,
5.2800000000000002,-0.050797663629055023,
5.2999999999999998,-0.10988931357860565,
5.3200000000000003,-0.14385859668254852,
5.3399999999999999,0.41518014669418335,
5.3600000000000003,0.52838706970214844,
5.3799999999999999,-0.10024905204772949,
5.4000000000000004,-0.14688770473003387,
5.4199999999999999,-0.06091872975230217,
5.4400000000000004,-0.026564797386527061,
5.46,-0.017357271164655685,
5.4800000000000004,-0.0075006484985351562,
5.5,0.031733512878417969,
5.5199999999999996,0.08702675998210907,
5.54,0.14683961868286133,
5.5599999999999996,0.19831041991710663,
5.5800000000000001,0.18073678016662598,
5.5999999999999996,0.084141895174980164,
5.6200000000000001,-0.024593472480773926,
5.6399999999999997,-0.09164254367351532,
5.6600000000000001,-0.095200538635253906,
5.6799999999999997,-0.093806192278862,
5.7000000000000002,-0.095777511596679688,
5.7199999999999998,-0.088829800486564636,
5.7400000000000002,-0.088637471199035645,
5.7599999999999998,-0.087243124842643738,
5.7800000000000002,-0.074333354830741882,
5.7999999999999998,-0.062313079833984375,
5.8200000000000003,-0.061856310814619064,
5.8399999999999999,-0.064957544207572937,
5.8600000000000003,-0.065678760409355164,
5.8799999999999999,-0.050292812287807465,
5.9000000000000004,-0.052240096032619476,
5.9199999999999999,-0.059572458267211914,
5.9400000000000004,-0.043898027390241623,
5.96,-0.039138000458478928,
5.9800000000000004,-0.030699770897626877,
6,0.0071160001680254936,79.470199584960938
6.0199999999999996,-0.01646777056157589,
6.04,-0.056014459580183029,
6.0599999999999996,-0.080271363258361816,
6.0800000000000001,-0.17003874480724335,
6.0999999999999996,0.27781248092651367,
6.1200000000000001,0.62611186504364014,
6.1399999999999997,-0.018102526664733887,
6.1600000000000001,-0.16446134448051453,
6.1799999999999997,-0.068082809448242188,
6.2000000000000002,-0.042431555688381195,
6.2199999999999998,-0.02245386503636837,
6.2400000000000002,-0.0016107162227854133,
6.2599999999999998,0.024401148781180382,
6.2800000000000002,0.073419809341430664,
6.2999999999999998,0.13361732661724091,
6.3200000000000003,0.18989622592926025,
6.3399999999999999,0.20518600940704346,
6.3600000000000003,0.12063543498516083,
6.3799999999999999,-0.022694271057844162,
6.4000000000000004,-0.081449352204799652,
6.4199999999999999,-0.087243124842643738,
6.4400000000000004,-0.093565784394741058,
6.46,-0.099575921893119812,
6.4800000000000004,-0.093445584177970886,
6.5,-0.09734015166759491,
6.5199999999999996,-0.089238487184047699,
6.54,-0.075463257730007172,
6.5599999999999996,-0.073828503489494324,
6.5800000000000001,-0.068635746836662292,
6.5999999999999996,-0.065173909068107605,
6.6200000000000001,-0.060870647430419922,
6.6399999999999997,-0.071448490023612976,
6.6600000000000001,-0.060293674468994141,
6.6799999999999997,-0.050124526023864746,
6.7000000000000002,-0.051494836807250977,
6.7199999999999998,-0.052528582513332367,
6.7400000000000002,-0.026035904884338379,
6.7599999999999998,0.0061062974855303764,
6.7800000000000002,-0.036493539810180664,
6.7999999999999998,-0.06200055405497551,
6.8200000000000003,-0.1185198649764061,
6.8399999999999999,-0.13123731315135956,
6.8600000000000003,0.45975130796432495,
6.8799999999999999,0.44395667314529419,
6.9000000000000004,-0.15287379920482635,
6.9199999999999999,-0.13864180445671082,
6.9400000000000004,-0.060149431228637695,
6.96,-0.042239230126142502,
6.9800000000000004,-0.023583769798278809,
7,2.4040540665737353e-05,78.947364807128906
7.0199999999999996,0.03368079662322998,
7.04,0.082891784608364105,
7.0599999999999996,0.14515678584575653,
7.0800000000000001,0.18172244727611542,
7.0999999999999996,0.15984556078910828,
7.1200000000000001,0.059139728546142578,
7.1399999999999997,-0.046302080154418945,
7.1600000000000001,-0.098686419427394867,
7.1799999999999997,-0.10298967361450195,
7.2000000000000002,-0.10094623267650604,
7.2199999999999998,-0.10871132463216782,
7.2400000000000002,-0.10426382720470428,
7.2599999999999998,-0.09625832736492157,
7.2800000000000002,-0.092508003115653992,
7.2999999999999998,-0.083613000810146332,
7.3200000000000003,-0.072289906442165375,
7.3399999999999999,-0.071280203759670258,
7.3600000000000003,-0.073203444480895996,
7.3799999999999999,-0.074141025543212891,
7.4000000000000004,-0.074958406388759613,
7.4199999999999999,-0.082386933267116547,
7.4400000000000004,-0.069837771356105804,
7.46,-0.056158702820539474,
7.4800000000000004,-0.044138431549072266,
7.5,-0.026757121086120605,
7.5199999999999996,-0.051446758210659027,
7.54,-0.073804460465908051,
7.5599999999999996,-0.12174129486083984,
7.5800000000000001,-0.17345249652862549,
7.5999999999999996,0.38885575532913208,
7.6200000000000001,0.49749493598937988,
7.6399999999999997,-0.1422959566116333,
7.6600000000000001,-0.16527871787548065,
7.6799999999999997,-0.077843271195888519,
7.7000000000000002,-0.056326985359191895,
7.7199999999999998,-0.038248501718044281,
7.7400000000000002,-0.012693405151367188,
7.7599999999999998,0.014352202415466309,
7.7800000000000002,0.070126257836818695,
7.7999999999999998,0.13330480456352234,
7.8200000000000003,0.18446306884288788,
7.8399999999999999,0.16078314185142517,
7.8600000000000003,0.06091872975230217,
7.8799999999999999,-0.047263704240322113,
7.9000000000000004,-0.086690187454223633,
7.9199999999999999,-0.11279821395874023,
7.9400000000000004,-0.10589858144521713,
7.96,-0.10652363300323486,
7.9800000000000004,-0.11140386760234833,
8,-0.10984122753143311,78.947364807128906
8.0199999999999996,-0.093036890029907227,
8.0399999999999991,-0.086449787020683289,
8.0600000000000005,-0.080776214599609375,
8.0800000000000001,-0.082194611430168152,
8.0999999999999996,-0.076328717172145844,
8.1199999999999992,-0.076881647109985352,
8.1400000000000006,-0.077073976397514343,
8.1600000000000001,-0.068227052688598633,
8.1799999999999997,-0.068659782409667969,
8.1999999999999993,-0.06137549877166748,
8.2200000000000006,-0.049427352845668793,
8.2400000000000002,-0.04473944753408432,
8.2599999999999998,-0.012981891632080078,
8.2799999999999994,-0.026108026504516602,
8.3000000000000007,-0.068227052688598633,
8.3200000000000003,-0.094647608697414398,
8.3399999999999999,-0.18352548778057098,
8.3599999999999994,0.27646622061729431,
8.3800000000000008,0.61781787872314453,
8.4000000000000004,-0.043465297669172287,
8.4199999999999999,-0.17811636626720428,
8.4399999999999995,-0.077266298234462738,
8.4600000000000009,-0.052047770470380783,
8.4800000000000004,-0.026709040626883507,
8.5,-0.015265743248164654,
8.5199999999999996,0.01738131046295166,
8.5399999999999991,0.065125823020935059,
8.5600000000000005,0.12621283531188965,
8.5800000000000001,0.18936733901500702,
8.5999999999999996,0.19819021224975586,
8.6199999999999992,0.1021001785993576,
8.6400000000000006,-0.026132067665457726,
8.6600000000000001,-0.078636609017848969,
8.6799999999999997,-0.093301340937614441,
8.6999999999999993,-0.10109047591686249,
8.7200000000000006,-0.10866324603557587,
8.7400000000000002,-0.09443124383687973,
8.7599999999999998,-0.09551306813955307,
8.7799999999999994,-0.10570625960826874,
8.8000000000000007,-0.087603732943534851,
8.8200000000000003,-0.074645876884460449,
8.8399999999999999,-0.080151163041591644,
8.8599999999999994,-0.074790120124816895,
8.8800000000000008,-0.076064273715019226,
8.9000000000000004,-0.064741179347038269,
8.9199999999999999,-0.054235458374023438,
8.9399999999999995,-0.0622890405356884,
8.9600000000000009,-0.05750497430562973,
8.9800000000000004,-0.041758418083190918,
9,-0.030411284416913986,79.096046447753906
9.0199999999999996,-0.013679067604243755,
9.0399999999999991,-0.0036060810089111328,
9.0600000000000005,-0.03322402760386467,
9.0800000000000001,-0.047720473259687424,
9.0999999999999996,-0.14765700697898865,
9.1199999999999992,-0.051086150109767914,
9.1400000000000006,0.61676007509231567,
9.1600000000000001,0.3422170877456665,
9.1799999999999997,-0.17818848788738251,
9.1999999999999993,-0.10217230021953583,
9.2200000000000006,-0.040748715400695801,
9.2400000000000002,-0.022501945495605469,
9.2599999999999998,-0.009135405533015728,
9.2799999999999994,0.016732215881347656,
9.3000000000000007,0.064957544207572937,
9.3200000000000003,0.11412044614553452,
9.3399999999999999,0.18114547431468964,
9.3599999999999994,0.22328853607177734,
9.3800000000000008,0.18588146567344666,
9.4000000000000004,0.06325066089630127,
9.4199999999999999,-0.050196647644042969,
9.4399999999999995,-0.071184039115905762,
9.4600000000000009,-0.074020825326442719,
9.4800000000000004,-0.082843706011772156,
9.5,-0.087507568299770355,
9.5199999999999996,-0.076569125056266785,
9.5399999999999991,-0.070102214813232422,
9.5600000000000005,-0.063923798501491547,
9.5800000000000001,-0.068227052688598633,
9.5999999999999996,-0.055293243378400803,
9.6199999999999992,-0.043104689568281174,
9.6400000000000006,-0.04707137867808342,
9.6600000000000001,-0.062649652361869812,
9.6799999999999997,-0.04815320298075676,
9.6999999999999993,-0.037455163896083832,
9.7200000000000006,-0.045508742332458496,
9.7400000000000002,-0.045508742332458496,
9.7599999999999998,-0.028295716270804405,
9.7799999999999994,-0.0025963783264160156,
9.8000000000000007,0.002259810920804739,
9.8200000000000003,-0.029161175712943077,
9.8399999999999999,-0.050148569047451019,
9.8599999999999994,-0.13597330451011658,
9.8800000000000008,-0.034546256065368652,
9.9000000000000004,0.58077138662338257,
9.9199999999999999,0.31493109464645386,
9.9399999999999995,-0.17011086642742157,
9.9600000000000009,-0.10142704099416733,
9.9800000000000004,-0.041566096246242523,
10,-0.018391013145446777,78.947364807128906
10.02,-0.0069717569276690483,
10.039999999999999,0.02598782442510128,
10.06,0.053995054215192795,
10.08,0.10385513305664062,
10.1,0.18624207377433777,
10.119999999999999,0.21598021686077118,
10.140000000000001,0.16515851020812988,
10.16,0.03658970445394516,
10.18,-0.046686731278896332,
10.199999999999999,-0.071256160736083984,
10.220000000000001,-0.097292065620422363,
10.24,-0.095729433000087738,
10.26,-0.085103511810302734,
10.279999999999999,-0.093830227851867676,
10.300000000000001,-0.092195473611354828,
10.32,-0.083757244050502777,
10.34,-0.061159133911132812,
10.359999999999999,-0.060678325593471527,
10.380000000000001,-0.057168405503034592,
10.4,-0.05983690544962883,
10.42,-0.054499905556440353,
10.44,-0.049475431442260742,
10.460000000000001,-0.048393607139587402,
10.48,-0.050965946167707443,
10.5,-0.041854582726955414,
10.52,-0.029281377792358398,
10.539999999999999,-2.4040540665737353e-05,
10.56,0.00098566222004592419,
10.58,-0.034978985786437988,
10.6,-0.052288174629211426,
10.619999999999999,-0.14239212870597839,
10.640000000000001,0.012284716591238976,
10.66,0.62515020370483398,
10.68,0.25682508945465088,
10.699999999999999,-0.18165032565593719,
10.720000000000001,-0.089046165347099304,
10.74,-0.044499039649963379,
10.76,-0.022213459014892578,
10.779999999999999,0.0032214324455708265,
10.800000000000001,0.021636486053466797,
10.82,0.054355662316083908,
10.84,0.12241443246603012,
10.859999999999999,0.18595358729362488,
10.880000000000001,0.21013836562633514,
10.9,0.15902817249298096,
10.92,0.043176811188459396,
10.94,-0.040580432862043381,
10.960000000000001,-0.084045730531215668,
10.98,-0.092868611216545105,
11,-0.074525676667690277,79.096046447753906
11.02,-0.08524775505065918,
11.039999999999999,-0.090704962611198425,
11.06,-0.077987514436244965,
11.08,-0.069621406495571136,
11.1,-0.068491503596305847,
11.119999999999999,-0.055149000138044357,
11.140000000000001,-0.059909027069807053,
11.16,-0.055533647537231445,
11.18,-0.056663554161787033,
11.199999999999999,-0.052913229912519455,
11.220000000000001,-0.051254432648420334,
11.24,-0.046181879937648773,
11.26,-0.051494836807250977,
11.279999999999999,-0.042191147804260254,
11.300000000000001,-0.035748284310102463,
11.32,-0.029834311455488205,
11.34,-0.011803905479609966,
11.359999999999999,0.013462702743709087,
11.380000000000001,-0.02074698731303215,
11.4,-0.052696865051984787,
11.42,-0.11986613273620605,
11.44,-0.10753333568572998,
11.460000000000001,0.5349501371383667,
11.48,0.45763573050498962,
11.5,-0.14960429072380066,
11.52,-0.12092392146587372,
11.539999999999999,-0.061495702713727951,
11.56,-0.027165811508893967,
11.58,-0.018895864486694336,
11.6,0.0065630674362182617,
11.619999999999999,0.044643282890319824,
11.640000000000001,0.089430809020996094,
11.66,0.16446134448051453,
11.68,0.21953821182250977,
11.699999999999999,0.20343105494976044,
11.720000000000001,0.074693962931632996,
11.74,-0.026997527107596397,
11.76,-0.065630674362182617,
11.779999999999999,-0.089118286967277527,
11.800000000000001,-0.082026325166225433,
11.82,-0.081377230584621429,
11.84,-0.080030962824821472,
11.859999999999999,-0.078636609017848969,
11.880000000000001,-0.080006919801235199,
11.9,-0.067025028169155121,
11.92,-0.062385201454162598,
11.94,-0.055918298661708832,
11.960000000000001,-0.06075044721364975,
11.98,-0.044018231332302094,
12,-0.043513379991054535,78.504676818847656
12.02,-0.051182311028242111,
12.039999999999999,-0.049980282783508301,
12.06,-0.043321054428815842,
12.08,-0.041998825967311859,
12.1,-0.04735986515879631,
12.119999999999999,-0.040556393563747406,
12.140000000000001,-0.027406215667724609,
12.16,-0.0060582160949707031,
12.18,0.012380878441035748,
12.199999999999999,-0.028512081131339073,
12.220000000000001,-0.046205919235944748,
12.24,-0.12046714872121811,
12.26,-0.092483960092067719,
12.279999999999999,0.55478358268737793,
12.300000000000001,0.45701068639755249,
12.32,-0.14335374534130096,
12.34,-0.11128365993499756,
12.359999999999999,-0.048682093620300293,
12.380000000000001,-0.035892527550458908,
12.4,-0.0027887027245014906,
12.42,0.014881094917654991,
12.44,0.043633580207824707,
12.460000000000001,0.10529756546020508,
12.48,0.1722264289855957,
12.5,0.22131721675395966,
12.52,0.19821426272392273,
12.539999999999999,0.093373462557792664,
12.56,-0.025434892624616623,
12.58,-0.076208516955375671,
12.6,-0.080704092979431152,
12.619999999999999,-0.080968543887138367,
12.640000000000001,-0.086690187454223633,
12.66,-0.080535814166069031,
12.68,-0.078420244157314301,
12.699999999999999,-0.075775787234306335,
12.720000000000001,-0.069212719798088074,
12.74,-0.056687593460083008,
12.76,-0.049499474465847015,
12.779999999999999,-0.051831405609846115,
12.800000000000001,-0.061279337853193283,
12.82,-0.048417650163173676,
12.84,-0.036709904670715332,
12.859999999999999,-0.057865582406520844,
12.880000000000001,-0.050004325807094574,
12.9,-0.030747851356863976,
12.92,-0.032743215560913086,
12.94,-0.024761756882071495,
12.960000000000001,0.009447932243347168,
12.98,-0.018655460327863693,
13,-0.049595635384321213,77.087799072265625
13.02,-0.097364187240600586,
13.039999999999999,-0.13606946170330048,
13.06,0.42864283919334412,
13.08,0.49614867568016052,
13.1,-0.10803818702697754,
13.119999999999999,-0.13984382152557373,
13.140000000000001,-0.061567824333906174,
13.16,-0.02661287784576416,
13.18,-0.011659662239253521,
13.199999999999999,0.011948148719966412,
13.220000000000001,0.043345093727111816,
13.24,0.089454852044582367,
13.26,0.16222557425498962,
13.279999999999999,0.22326450049877167,
13.300000000000001,0.1999211311340332,
13.32,0.096691057085990906,
13.34,-0.01490513514727354,
13.359999999999999,-0.070919595658779144,
13.380000000000001,-0.083973608911037445,
13.4,-0.086305543780326843,
13.42,-0.080199241638183594,
13.44,-0.085079476237297058,
13.460000000000001,-0.081112787127494812,
13.48,-0.065390273928642273,
13.5,-0.069429084658622742,
13.52,-0.060341756790876389,
13.539999999999999,-0.047311782836914062,
13.56,-0.047095417976379395,
13.58,-0.059019528329372406,
13.6,-0.053153634071350098,
13.619999999999999,-0.039787095040082932,
13.640000000000001,-0.044306717813014984,
13.66,-0.04291236400604248,
13.68,-0.032647054642438889,
13.699999999999999,-0.019040107727050781,
13.720000000000001,-0.0041590137407183647,
13.74,-0.013799270614981651,
13.76,-0.035267472267150879,
13.779999999999999,-0.083204314112663269,
13.800000000000001,-0.18376588821411133,
13.82,0.28326970338821411,
13.84,0.62209707498550415,
13.859999999999999,-0.018655460327863693,
13.880000000000001,-0.17633736133575439,
13.9,-0.071256160736083984,
13.92,-0.040820837020874023,
13.94,-0.030844014137983322,
13.960000000000001,-0.0030050675850361586,
13.98,0.022333662956953049,
14,0.068731904029846191,76.923080444335938
14.02,0.12888133525848389,
14.039999999999999,0.19737283885478973,
14.06,0.20258963108062744,
14.08,0.10051350295543671,
14.1,-0.020482540130615234,
14.119999999999999,-0.08411785215139389,
14.140000000000001,-0.10808627307415009,
14.16,-0.11234144866466522,
14.18,-0.10568221658468246,
14.199999999999999,-0.1160917729139328,
14.220000000000001,-0.096306405961513519,
14.24,-0.10161936283111572,
14.26,-0.098998948931694031,
14.279999999999999,-0.086521908640861511,
14.300000000000001,-0.080175206065177917,
14.32,-0.076953768730163574,
14.34,-0.084286138415336609,
14.359999999999999,-0.072530314326286316,
14.380000000000001,-0.081737838685512543,
14.4,-0.071881219744682312,
14.42,-0.072914958000183105,
14.44,-0.067650079727172852,
14.460000000000001,-0.052216053009033203,
14.48,-0.046518445014953613,
14.5,-0.022622149437665939,
14.52,-0.032118164002895355,
14.539999999999999,-0.061255298554897308,
14.56,-0.085343919694423676,
14.58,-0.20037791132926941,
14.6,0.16068696975708008,
14.619999999999999,0.6700819730758667,
14.640000000000001,0.069308876991271973,
14.66,-0.20653228461742401,
14.68,-0.092868611216545105,
14.699999999999999,-0.059548418968915939,
14.720000000000001,-0.042647920548915863,
14.74,-0.021468203514814377,
14.76,0.0080054998397827148,
14.779999999999999,0.051254432648420334,
14.800000000000001,0.11150002479553223,
14.82,0.18898269534111023,
14.84,0.21533112227916718,
14.859999999999999,0.12813608348369598,
14.880000000000001,-0.0018030405044555664,
14.9,-0.077650949358940125,
14.92,-0.10277330875396729,
14.94,-0.10330220311880112,
14.960000000000001,-0.1045282706618309,
14.98,-0.096426606178283691,
15,-0.10077794641256332,76.782447814941406
15.02,-0.093253254890441895,
15.039999999999999,-0.090608797967433929,
15.06,-0.081353187561035156,
15.08,-0.075871944427490234,
15.1,-0.072362028062343597,
15.119999999999999,-0.06137549877166748,
15.140000000000001,-0.069813728332519531,
15.16,-0.065149866044521332,
15.18,-0.067938566207885742,
15.199999999999999,-0.056495271623134613,
15.220000000000001,-0.054740309715270996,
15.24,-0.046638648957014084,
15.26,-0.04832148551940918,
15.279999999999999,-0.025819540023803711,
15.300000000000001,0.014784932136535645,
15.32,-0.016203325241804123,
15.34,-0.056351028382778168,
15.359999999999999,-0.086497865617275238,
15.380000000000001,-0.15438835322856903,
15.4,0.38195610046386719,
15.42,0.61930835247039795,
15.44,-0.051446758210659027,
15.460000000000001,-0.15453259646892548,
15.48,-0.06120721623301506,
15.5,-0.032863419502973557,
15.52,-0.020266175270080566,
15.539999999999999,0.00091354054166004062,
15.56,0.032935541123151779,
15.58,0.083276435732841492,
15.6,0.15008509159088135,
15.619999999999999,0.21153271198272705,
15.640000000000001,0.20261368155479431,
15.66,0.10428786277770996,
15.68,-0.014688770286738873,
15.699999999999999,-0.093253254890441895,
15.720000000000001,-0.10068178176879883,
15.74,-0.097243987023830414,
15.76,-0.10097026824951172,
15.779999999999999,-0.1084468811750412,
15.800000000000001,-0.10397534072399139,
15.82,-0.093854270875453949,
15.84,-0.09476780891418457,
15.859999999999999,-0.08810858428478241,
15.880000000000001,-0.080800257623195648,
15.9,-0.077771149575710297,
15.92,-0.079285703599452972,
15.94,-0.076977811753749847,
15.960000000000001,-0.077362462878227234,
15.98,-0.076256595551967621,
16,-0.065366230905056,75.789474487304688
16.02,-0.062890052795410156,
16.039999999999999,-0.042647920548915863,
16.059999999999999,-0.016876459121704102,
16.079999999999998,-0.069861814379692078,
16.100000000000001,-0.097845003008842468,
16.120000000000001,-0.17751535773277283,
16.140000000000001,-0.058899324387311935,
16.16,0.56497675180435181,
16.18,0.25771459937095642,
16.199999999999999,-0.2091526985168457,
16.219999999999999,-0.13993999361991882,
16.239999999999998,-0.097243987023830414,
16.260000000000002,-0.065390273928642273,
16.280000000000001,-0.04262387752532959,
16.300000000000001,-0.029593905434012413,
16.32,0.011178851127624512,
16.34,0.072001419961452484,
16.359999999999999,0.14405092597007751,
16.379999999999999,0.17790000140666962,
16.399999999999999,0.12239038944244385,
16.420000000000002,0.0087026758119463921,
16.440000000000001,-0.091906987130641937,
16.460000000000001,-0.13532420992851257,
16.48,-0.14433941245079041,
16.5,-0.1475127637386322,
16.52,-0.14159879088401794,
16.539999999999999,-0.13707916438579559,
16.559999999999999,-0.14344990253448486,
16.579999999999998,-0.12900154292583466,
16.600000000000001,-0.12068351358175278,
16.620000000000001,-0.12008249759674072,
16.640000000000001,-0.11330306529998779,
16.66,-0.099599957466125488,
16.68,-0.10714869201183319,
16.699999999999999,-0.1106826514005661,
16.719999999999999,-0.1031339168548584,
16.739999999999998,-0.10551393032073975,
16.760000000000002,-0.099215313792228699,
16.780000000000001,-0.089238487184047699,
16.800000000000001,-0.086521908640861511,
16.82,-0.051230393350124359,
16.84,-0.058226190507411957,
16.859999999999999,-0.10012885183095932,
16.879999999999999,-0.11366367340087891,
16.899999999999999,-0.22614936530590057,
16.920000000000002,-0.0099768247455358505,
16.940000000000001,0.61776977777481079,
16.960000000000001,0.099744200706481934,
16.98,-0.24629533290863037,
17,-0.1340019702911377,76.642341613769531
17.02,-0.096787214279174805,
17.039999999999999,-0.084021687507629395,
17.059999999999999,-0.053946971893310547,
17.079999999999998,-0.033464431762695312,
17.100000000000001,0.0097604598850011826,
17.120000000000001,0.063875719904899597,
17.140000000000001,0.13335287570953369,
17.16,0.17338037490844727,
17.18,0.099215313792228699,
17.199999999999999,-0.023127000778913498,
17.219999999999999,-0.10801415145397186,
17.239999999999998,-0.13799270987510681,
17.260000000000002,-0.14352202415466309,
17.280000000000001,-0.13712725043296814,
17.300000000000001,-0.13239125907421112,
17.32,-0.13866584002971649,
17.34,-0.13808886706829071,
17.359999999999999,-0.12323181331157684,
17.379999999999999,-0.1159956082701683,
17.399999999999999,-0.11678894609212875,
17.420000000000002,-0.11178851127624512,
17.440000000000001,-0.10457634925842285,
17.460000000000001,-0.10868728160858154,
17.48,-0.10532160848379135,
17.5,-0.093517705798149109,
17.52,-0.092604160308837891,
17.539999999999999,-0.095537111163139343,
17.559999999999999,-0.078203879296779633,
17.579999999999998,-0.076112352311611176,
17.600000000000001,-0.07072727382183075,
17.620000000000001,-0.02416074275970459,
17.640000000000001,-0.050052404403686523,
17.66,-0.088950000703334808,
17.68,-0.12575607001781464,
17.699999999999999,-0.21893720328807831,
17.719999999999999,0.30142030119895935,
17.739999999999998,0.61115860939025879,
17.760000000000002,-0.072602435946464539,
17.780000000000001,-0.19895951449871063,
17.800000000000001,-0.092748403549194336,
17.82,-0.07983863353729248,
17.84,-0.064885422587394714,
17.859999999999999,-0.034810703247785568,
17.879999999999999,0.00055293244076892734,
17.899999999999999,0.041349731385707855,
17.920000000000002,0.11005759239196777,
17.940000000000001,0.17463049292564392,
17.960000000000001,0.19898355007171631,
17.98,0.10157128423452377,
18,-0.034834742546081543,77.064216613769531
18.02,-0.10570625960826874,
18.039999999999999,-0.11318286508321762,
18.059999999999999,-0.12154897302389145,
18.079999999999998,-0.11998634040355682,
18.100000000000001,-0.10577838122844696,
18.120000000000001,-0.11520227044820786,
18.140000000000001,-0.11493782699108124,
18.16,-0.10034521669149399,
18.18,-0.095296703279018402,
18.199999999999999,-0.099143192172050476,
18.219999999999999,-0.08632957935333252,
18.239999999999998,-0.083564922213554382,
18.260000000000002,-0.079766511917114258,
18.280000000000001,-0.071929298341274261,
18.300000000000001,-0.076521039009094238,
18.32,-0.076617203652858734,
18.34,-0.067553922533988953,
18.359999999999999,-0.060221552848815918,
18.379999999999999,-0.056375067681074142,
18.399999999999999,-0.046662688255310059,
18.420000000000002,-0.0072121620178222656,
18.440000000000001,-0.027406215667724609,
18.460000000000001,-0.070294544100761414,
18.48,-0.11181255429983139,
18.5,-0.18201093375682831,
18.52,0.32880246639251709,
18.539999999999999,0.60711979866027832,
18.559999999999999,-0.046302080154418945,
18.579999999999998,-0.17955879867076874,
18.600000000000001,-0.084430381655693054,
18.620000000000001,-0.050509177148342133,
18.640000000000001,-0.029377540573477745,
18.66,-0.018246769905090332,
18.68,0.015938878059387207,
18.699999999999999,0.076424881815910339,
18.719999999999999,0.13145367801189423,
18.739999999999998,0.18427073955535889,
18.760000000000002,0.2099941223859787,
18.780000000000001,0.11513014882802963,
18.800000000000001,-0.024401148781180382,
18.82,-0.094311043620109558,
18.84,-0.096426606178283691,
18.859999999999999,-0.097195908427238464,
18.879999999999999,-0.11508207023143768,
18.899999999999999,-0.11186063289642334,
18.920000000000002,-0.09339749813079834,
18.940000000000001,-0.09909510612487793,
18.960000000000001,-0.10330220311880112,
18.98,-0.086065135896205902,
19,-0.063755512237548828,76.923080444335938
19.02,-0.071785055100917816,
19.039999999999999,-0.074189111590385437,
19.059999999999999,-0.065486431121826172,
19.079999999999998,-0.064909458160400391,
19.100000000000001,-0.06885211169719696,
19.120000000000001,-0.051470797508955002,
19.140000000000001,-0.05293726921081543,
19.16,-0.030218958854675293,
19.18,-0.0097845001146197319,
19.199999999999999,-0.047167539596557617,
19.219999999999999,-0.077146098017692566,
19.239999999999998,-0.12207786738872528,
19.260000000000002,-0.14224788546562195,
19.280000000000001,0.46470364928245544,
19.300000000000001,0.46768468618392944,
19.32,-0.15191218256950378,
19.34,-0.15039762854576111,
19.359999999999999,-0.074742041528224945,
19.379999999999999,-0.04860997200012207,
19.399999999999999,-0.031949877738952637,
19.420000000000002,-0.011154810898005962,
19.440000000000001,0.026372473686933517,
19.460000000000001,0.082579255104064941,
19.48,0.15462875366210938,
19.5,0.20787855982780457,
19.52,0.17821252346038818,
19.539999999999999,0.074982449412345886,
19.559999999999999,-0.037551324814558029,
19.579999999999998,-0.090344354510307312,
19.600000000000001,-0.10087411105632782,
19.620000000000001,-0.1100335568189621,
19.640000000000001,-0.10339836776256561,
19.66,-0.090344354510307312,
19.68,-0.10270118713378906,
19.699999999999999,-0.090007781982421875,
19.719999999999999,-0.08844514936208725,
19.739999999999998,-0.08736332505941391,
19.760000000000002,-0.074092946946620941,
19.780000000000001,-0.067650079727172852,
19.800000000000001,-0.071160003542900085,
19.82,-0.077530741691589355,
19.84,-0.071135960519313812,
19.859999999999999,-0.057985782623291016,
19.879999999999999,-0.060942769050598145,
19.899999999999999,-0.066616341471672058,
19.920000000000002,-0.056326985359191895,
19.940000000000001,-0.041157405823469162,
19.960000000000001,-0.037791728973388672,
19.98,-0.0033656756859272718,
20,-0.015409986488521099,76.923072814941406
20.02,-0.0622890405356884,
20.039999999999999,-0.098830662667751312,
20.059999999999999,-0.18410246074199677,
20.079999999999998,0.27723550796508789,
20.100000000000001,0.64510387182235718,
20.120000000000001,-0.0014905135612934828,
20.140000000000001,-0.17717878520488739,
20.16,-0.088925957679748535,
20.18,-0.046903096139431,
20.199999999999999,-0.018871825188398361,
20.219999999999999,-0.014688770286738873,
20.239999999999998,0.0097123784944415092,
20.260000000000002,0.062337122857570648,
20.280000000000001,0.13856968283653259,
20.300000000000001,0.20129144191741943,
20.32,0.21174907684326172,
20.34,0.13496360182762146,
20.359999999999999,0.0096162166446447372,
20.379999999999999,-0.072602435946464539,
20.399999999999999,-0.094695687294006348,
20.420000000000002,-0.083204314112663269,
20.440000000000001,-0.091762743890285492,
20.460000000000001,-0.090993449091911316,
20.48,-0.080511771142482758,
20.5,-0.079670354723930359,
20.52,-0.080511771142482758,
20.539999999999999,-0.070342622697353363,
20.559999999999999,-0.067217350006103516,
20.579999999999998,-0.057577095925807953,
20.600000000000001,-0.057456891983747482,
20.620000000000001,-0.052961312234401703,
20.640000000000001,-0.049547553062438965,
20.66,-0.053538285195827484,
20.68,-0.049980282783508301,
20.699999999999999,-0.039690934121608734,
20.719999999999999,-0.038609109818935394,
20.739999999999998,-0.029954513534903526,
20.760000000000002,-0.024954080581665039,
20.780000000000001,0.01783808134496212,
20.800000000000001,0.016612013801932335,
20.82,-0.033368270844221115,
20.84,-0.04719158262014389,
20.859999999999999,-0.16164860129356384,
20.879999999999999,0.10380705446004868,
20.899999999999999,0.70777755975723267,
20.920000000000002,0.21497051417827606,
20.940000000000001,-0.16917328536510468,
20.960000000000001,-0.068804025650024414,
20.98,-0.0292332973331213,
21,-0.0094719734042882919,76.502731323242188
21.02,0.0023800134658813477,
21.039999999999999,0.044571161270141602,
21.059999999999999,0.083300471305847168,
21.079999999999998,0.13768017292022705,
21.100000000000001,0.21677355468273163,
21.120000000000001,0.25665682554244995,
21.140000000000001,0.19547364115715027,
21.16,0.05401909351348877,
21.18,-0.030267041176557541,
21.199999999999999,-0.052648782730102539,
21.219999999999999,-0.069332920014858246,
21.239999999999998,-0.06325066089630127,
21.260000000000002,-0.070871517062187195,
21.280000000000001,-0.060101352632045746,
21.300000000000001,-0.053201716393232346,
21.32,-0.057456891983747482,
21.34,-0.052216053009033203,
21.359999999999999,-0.046494405716657639,
21.379999999999999,-0.03447413444519043,
21.399999999999999,-0.030291080474853516,
21.420000000000002,-0.031781595200300217,
21.440000000000001,-0.025651257485151291,
21.460000000000001,-0.027838945388793945,
21.48,-0.019857486709952354,
21.5,-0.017285149544477463,
21.52,-0.00024040541029535234,
21.539999999999999,0.0089911622926592827,
21.559999999999999,0.037334959954023361,
21.579999999999998,0.023896297439932823,
21.600000000000001,-0.00093758106231689453,
21.620000000000001,-0.028824608772993088,
21.640000000000001,-0.14207959175109863,
21.66,0.26343625783920288,
21.68,0.69717568159103394,
21.699999999999999,0.072939001023769379,
21.719999999999999,-0.13304035365581512,
21.739999999999998,-0.022117298096418381,
21.760000000000002,0.0073323650285601616,
21.780000000000001,0.018078487366437912,
21.800000000000001,0.048585932701826096,
21.82,0.070534944534301758,
21.84,0.11193275451660156,
21.859999999999999,0.18588146567344666,
21.879999999999999,0.25136789679527283,
21.899999999999999,0.26341220736503601,
21.920000000000002,0.18261194229125977,
21.940000000000001,0.05784153938293457,
21.960000000000001,-0.013630986213684082,
21.98,-0.042143069207668304,
22,-0.050485134124755859,76.225044250488281
22.02,-0.046951174736022949,
22.039999999999999,-0.044547121971845627,
22.059999999999999,-0.042119026184082031,
22.079999999999998,-0.043224893510341644,
22.100000000000001,-0.031493108719587326,
22.120000000000001,-0.02632439136505127,
22.140000000000001,-0.011106729507446289,
22.16,-0.0087988376617431641,
22.18,-0.014015635475516319,
22.199999999999999,-0.014688770286738873,
22.219999999999999,-0.0048802299425005913,
22.239999999999998,-0.0093036890029907227,
22.260000000000002,-0.00060101354029029608,
22.280000000000001,0.0012981891632080078,
22.300000000000001,0.020410418510437012,
22.32,0.045172177255153656,
22.34,0.012068351730704308,
22.359999999999999,-0.011539459228515625,
22.379999999999999,-0.058418512344360352,
22.399999999999999,-0.13142964243888855,
22.420000000000002,0.42364239692687988,
22.440000000000001,0.62462133169174194,
22.460000000000001,-0.030844014137983322,
22.48,-0.12311160564422607,
22.5,-0.027189850807189941,
22.52,0.010866324417293072,
22.539999999999999,0.026156108826398849,
22.559999999999999,0.038416784256696701,
22.579999999999998,0.072386071085929871,
22.600000000000001,0.12549161911010742,
22.620000000000001,0.19309362769126892,
22.640000000000001,0.25131982564926147,
22.66,0.25136789679527283,
22.68,0.13941109180450439,
22.699999999999999,0.026733081787824631,
22.719999999999999,-0.029930472373962402,
22.739999999999998,-0.053922932595014572,
22.760000000000002,-0.065053701400756836,
22.780000000000001,-0.047744512557983398,
22.800000000000001,-0.047624312341213226,
22.82,-0.046061675995588303,
22.84,-0.053730607032775879,
22.859999999999999,-0.045412581413984299,
22.879999999999999,-0.033584635704755783,
22.899999999999999,-0.026132067665457726,
22.920000000000002,-0.021756689995527267,
22.940000000000001,-0.025579135864973068,
22.960000000000001,-0.02706964872777462,
22.98,-0.015914838761091232,
23,-0.018318891525268555,76.595741271972656
23.02,-0.021588405594229698,
23.039999999999999,-0.012621283531188965,
23.059999999999999,0.00050485134124755859,
23.079999999999998,0.002283851383253932,
23.100000000000001,0.036998391151428223,
23.120000000000001,0.0074525675736367702,
23.140000000000001,-0.020362338051199913,
23.16,-0.052696865051984787,
23.18,-0.14782528579235077,
23.199999999999999,0.20742177963256836,
23.219999999999999,0.69402635097503662,
23.239999999999998,0.096330448985099792,
23.260000000000002,-0.1601099967956543,
23.280000000000001,-0.052456460893154144,
23.300000000000001,-0.030122797936201096,
23.32,-0.011731783859431744,
23.34,0.0095681352540850639,
23.359999999999999,0.03351251408457756,
23.379999999999999,0.06964544951915741,
23.399999999999999,0.15381138026714325,
23.420000000000002,0.20814299583435059,
23.440000000000001,0.23028433322906494,
23.460000000000001,0.1762412041425705,
23.48,0.029786229133605957,
23.5,-0.059067606925964355,
23.52,-0.075823865830898285,
23.539999999999999,-0.076953768730163574,
23.559999999999999,-0.080439649522304535,
23.579999999999998,-0.073900625109672546,
23.600000000000001,-0.074621841311454773,
23.620000000000001,-0.071280203759670258,
23.640000000000001,-0.076929733157157898,
23.66,-0.071256160736083984,
23.68,-0.061760149896144867,
23.699999999999999,-0.060053270310163498,
23.719999999999999,-0.058346390724182129,
23.739999999999998,-0.053586363792419434,
23.760000000000002,-0.05293726921081543,
23.780000000000001,-0.053850810974836349,
23.800000000000001,-0.048081081360578537,
23.82,-0.045508742332458496,
23.84,-0.047672390937805176,
23.859999999999999,-0.032358568161725998,
23.879999999999999,-0.022117298096418381,
23.899999999999999,0.0025723378639668226,
23.920000000000002,-0.0076448917388916016,
23.940000000000001,-0.040965080261230469,
23.960000000000001,-0.056543350219726562,
23.98,-0.16167263686656952,
24,0.056182742118835449,76.923072814941406
24.02,0.68801623582839966,
24.039999999999999,0.22727927565574646,
24.059999999999999,-0.18383800983428955,
24.079999999999998,-0.088950000703334808,
24.100000000000001,-0.04370570182800293,
24.120000000000001,-0.0253627710044384,
24.140000000000001,-0.011996230110526085,
24.16,0.016924541443586349,
24.18,0.060966812074184418,
24.199999999999999,0.11342327296733856,
24.219999999999999,0.19054532051086426,
24.239999999999998,0.23381829261779785,
24.260000000000002,0.17239472270011902,
24.280000000000001,0.053394041955471039,
24.300000000000001,-0.047215621918439865,
24.32,-0.091185770928859711,
24.34,-0.096162162721157074,
24.359999999999999,-0.095681354403495789,
24.379999999999999,-0.084478460252285004,
24.399999999999999,-0.090536676347255707,
24.420000000000002,-0.095705389976501465,
24.440000000000001,-0.088348984718322754,
24.460000000000001,-0.082819662988185883,
24.48,-0.074213147163391113,
24.5,-0.071592733263969421,
24.52,-0.074213147163391113,
24.539999999999999,-0.061495702713727951,
24.559999999999999,-0.062793895602226257,
24.579999999999998,-0.060558121651411057,
24.600000000000001,-0.058033864945173264,
24.620000000000001,-0.059548418968915939,
24.640000000000001,-0.051134228706359863,
24.66,-0.044354796409606934,
24.68,-0.013150176033377647,
24.699999999999999,-0.0079093379899859428,
24.719999999999999,-0.060486000031232834,
24.739999999999998,-0.077290341258049011,
24.760000000000002,-0.16811549663543701,
24.780000000000001,0.026228230446577072,
24.800000000000001,0.62608778476715088,
24.82,0.20254155993461609,
24.84,-0.1930215060710907,
24.859999999999999,-0.10818243026733398,
24.879999999999999,-0.063034296035766602,
24.899999999999999,-0.036277174949645996,
24.920000000000002,-0.013871392235159874,
24.940000000000001,0.0044955811463296413,
24.960000000000001,0.04490773007273674,
24.98,0.10883152484893799,
25,0.1745583713054657,76.225044250488281
25.02,0.2092488706111908,
25.039999999999999,0.15607118606567383,
25.059999999999999,0.032839380204677582,
25.079999999999998,-0.06786644458770752,
25.100000000000001,-0.10265310853719711,
25.120000000000001,-0.11207699775695801,
25.140000000000001,-0.10503312200307846,
25.16,-0.10558605194091797,
25.18,-0.10806223005056381,
25.199999999999999,-0.1123654842376709,
25.219999999999999,-0.10339836776256561,
25.239999999999998,-0.083444714546203613,
25.260000000000002,-0.073443852365016937,
25.280000000000001,-0.087964341044425964,
25.300000000000001,-0.087579689919948578,
25.32,-0.068178974092006683,
25.34,-0.065582595765590668,
25.359999999999999,-0.078203879296779633,
25.379999999999999,-0.073107287287712097,
25.399999999999999,-0.054331623017787933,
25.420000000000002,-0.042720042169094086,
25.440000000000001,-0.036349296569824219,
25.460000000000001,-0.013727148994803429,
25.48,-0.036637783050537109,
25.5,-0.057793460786342621,
25.52,-0.11621197313070297,
25.539999999999999,-0.1622496098279953,
25.559999999999999,0.41842561960220337,
25.579999999999998,0.52862745523452759,
25.600000000000001,-0.11207699775695801,
25.620000000000001,-0.1547008752822876,
25.640000000000001,-0.067650079727172852,
25.66,-0.043104689568281174,
25.68,-0.027213891968131065,
25.699999999999999,0.0027646622620522976,
25.719999999999999,0.033416353166103363,
25.739999999999998,0.078324079513549805,
25.760000000000002,0.15888392925262451,
25.780000000000001,0.2146579921245575,
25.800000000000001,0.20314256846904755,
25.82,0.10743717849254608,
25.84,-0.017934244126081467,
25.859999999999999,-0.075487300753593445,
25.879999999999999,-0.092483960092067719,
25.899999999999999,-0.082867741584777832,
25.920000000000002,-0.079694390296936035,
25.940000000000001,-0.078372165560722351,
25.960000000000001,-0.080463692545890808,
25.98,-0.081040665507316589,
26,-0.069332920014858246,76.642341613769531
26.02,-0.058250229805707932,
26.039999999999999,-0.054451823234558105,
26.059999999999999,-0.054572027176618576,
26.079999999999998,-0.054067175835371017,
26.100000000000001,-0.041229527443647385,
26.120000000000001,-0.050581298768520355,
26.140000000000001,-0.047648351639509201,
26.16,-0.033752918243408203,
26.18,-0.035748284310102463,
26.199999999999999,-0.031541191041469574,
26.219999999999999,-0.010048946365714073,
26.239999999999998,-0.004567702766507864,
26.260000000000002,0.019232433289289474,
26.280000000000001,0.0063947839662432671,
26.300000000000001,-0.022718310356140137,
26.32,-0.065726839005947113,
26.34,-0.15607118606567383,
26.359999999999999,0.3377455472946167,
26.379999999999999,0.67796730995178223,
26.399999999999999,0.014857053756713867,
26.420000000000002,-0.14268061518669128,
26.440000000000001,-0.039186082780361176,
26.460000000000001,-0.01353482436388731,
26.48,0,
26.5,0.023559730499982834,
26.52,0.059524379670619965,
26.539999999999999,0.098830662667751312,
26.559999999999999,0.16179284453392029,
26.579999999999998,0.23468375205993652,
26.600000000000001,0.25374791026115417,
26.620000000000001,0.16664902865886688,
26.640000000000001,0.033320188522338867,
26.66,-0.051542919129133224,
26.68,-0.066424012184143066,
26.699999999999999,-0.059356093406677246,
26.719999999999999,-0.06815493106842041,
26.739999999999998,-0.068876147270202637,
26.760000000000002,-0.059933066368103027,
26.780000000000001,-0.065246030688285828,
26.800000000000001,-0.058081947267055511,
26.82,-0.059404175728559494,
26.84,-0.056375067681074142,
26.859999999999999,-0.049331188201904297,
26.879999999999999,-0.046205919235944748,
26.899999999999999,-0.045027934014797211,
26.920000000000002,-0.043898027390241623,
26.940000000000001,-0.050388973206281662,
26.960000000000001,-0.038969717919826508,
26.98,-0.038392744958400726,
27,-0.043873988091945648,76.595741271972656
27.02,-0.033632718026638031,
27.039999999999999,-0.025338729843497276,
27.059999999999999,-0.015554229728877544,
27.079999999999998,0.018366973847150803,
27.100000000000001,-0.0096883382648229599,
27.120000000000001,-0.053153634071350098,
27.140000000000001,-0.091354057192802429,
27.16,-0.13801674544811249,
27.18,0.42212784290313721,
27.199999999999999,0.60692751407623291,
27.219999999999999,-0.05863487720489502,
27.239999999999998,-0.13493955135345459,
27.260000000000002,-0.051350593566894531,
27.280000000000001,-0.037623446434736252,
27.300000000000001,-0.01353482436388731,
27.32,0.020963352173566818,
27.34,0.045556824654340744,
27.359999999999999,0.092628203332424164,
27.379999999999999,0.16455750167369843,
27.399999999999999,0.23203930258750916,
27.420000000000002,0.23324131965637207,
27.440000000000001,0.14171898365020752,
27.460000000000001,0.017140906304121017,
27.48,-0.061519742012023926,
27.5,-0.078155800700187683,
27.52,-0.070054136216640472,
27.539999999999999,-0.072842836380004883,
27.559999999999999,-0.075463257730007172,
27.579999999999998,-0.071039795875549316,
27.600000000000001,-0.065750882029533386,
27.620000000000001,-0.059115689247846603,
27.640000000000001,-0.054860513657331467,
27.66,-0.051374636590480804,
27.68,-0.04707137867808342,
27.699999999999999,-0.045532785356044769,
27.719999999999999,-0.033704839646816254,
27.739999999999998,-0.041061244904994965,
27.760000000000002,-0.035315554589033127,
27.780000000000001,-0.030218958854675293,
27.800000000000001,-0.028536122292280197,
27.82,-0.01954495906829834,
27.84,-0.013414621353149414,
27.859999999999999,0.021468203514814377,
27.879999999999999,0.0010097026824951172,
27.899999999999999,-0.030675729736685753,
27.920000000000002,-0.086714230477809906,
27.940000000000001,-0.15309016406536102,
27.960000000000001,0.39460143446922302,
27.98,0.58836817741394043,
28,-0.06570279598236084,75.812278747558594
28.02,-0.1406131237745285,
28.039999999999999,-0.044282674789428711,
28.059999999999999,-0.019737284630537033,
28.079999999999998,0.0035580000840127468,
28.100000000000001,0.019280513748526573,
28.120000000000001,0.056928001344203949,
28.140000000000001,0.1021001785993576,
28.16,0.17890970408916473,
28.18,0.23819367587566376,
28.199999999999999,0.23232778906822205,
28.219999999999999,0.14808973670005798,
28.239999999999998,0.018318891525268555,
28.260000000000002,-0.057096283882856369,
28.280000000000001,-0.068491503596305847,
28.300000000000001,-0.067121192812919617,
28.32,-0.066880784928798676,
28.34,-0.074838206171989441,
28.359999999999999,-0.069188676774501801,
28.379999999999999,-0.06565471738576889,
28.399999999999999,-0.059163771569728851,
28.420000000000002,-0.04844168946146965,
28.440000000000001,-0.032118164002895355,
28.460000000000001,-0.035411715507507324,
28.48,-0.045797228813171387,
28.5,-0.034930907189846039,
28.52,-0.03334423154592514,
28.539999999999999,-0.033199988305568695,
28.559999999999999,-0.03305574506521225,
28.579999999999998,-0.024232864379882812,
28.600000000000001,-0.019737284630537033,
28.620000000000001,-0.014472405426204205,
28.640000000000001,0.0021396081428974867,
28.66,0.031781595200300217,
28.68,0.0010097026824951172,
28.699999999999999,-0.020242135971784592,
28.719999999999999,-0.091834865510463715,
28.739999999999998,-0.10912001132965088,
28.760000000000002,0.57928085327148438,
28.780000000000001,0.52617532014846802,
28.800000000000001,-0.10710060596466064,
28.82,-0.094551444053649902,
28.84,-0.025627216324210167,
28.859999999999999,-0.012597243301570415,
28.879999999999999,-0.00055293244076892734,
28.899999999999999,0.032959580421447754,
28.920000000000002,0.074309311807155609,
28.940000000000001,0.1238328218460083,
28.960000000000001,0.20040194690227509,
28.98,0.24761757254600525,
29,0.2277120053768158,75.539573669433594
29.02,0.12330393493175507,
29.039999999999999,0.0033656756859272718,
29.059999999999999,-0.061014890670776367,
29.079999999999998,-0.067097149789333344,
29.100000000000001,-0.05647122859954834,
29.120000000000001,-0.05214393138885498,
29.140000000000001,-0.066255733370780945,
29.16,-0.060317717492580414,
29.18,-0.049114823341369629,
29.199999999999999,-0.050028365105390549,
29.219999999999999,-0.054091215133666992,
29.239999999999998,-0.039955377578735352,
29.260000000000002,-0.028199553489685059,
29.280000000000001,-0.029473703354597092,
29.300000000000001,-0.031853716820478439,
29.32,-0.035291515290737152,
29.34,-0.025819540023803711,
29.359999999999999,-0.020650824531912804,
29.379999999999999,-0.02029021643102169,
29.399999999999999,-0.018703540787100792,
29.420000000000002,-0.0023319325409829617,
29.440000000000001,0.0062986216507852077,
29.460000000000001,0.036661826074123383,
29.48,0.017910202965140343,
29.5,-0.013871392235159874,
29.52,-0.041878622025251389,
29.539999999999999,-0.14907538890838623,
29.559999999999999,0.26766738295555115,
29.579999999999998,0.71169614791870117,
29.600000000000001,0.069549284875392914,
29.620000000000001,-0.14703194797039032,
29.640000000000001,-0.038056176155805588,
29.66,-0.011972188949584961,
29.68,0.0027646622620522976,
29.699999999999999,0.026540756225585938,
29.719999999999999,0.049138866364955902,
29.739999999999998,0.099191270768642426,
29.760000000000002,0.17104844748973846,
29.780000000000001,0.23458759486675262,
29.800000000000001,0.25355559587478638,
29.82,0.18241962790489197,
29.84,0.055028796195983887,
29.859999999999999,-0.032671093940734863,
29.879999999999999,-0.069693528115749359,
29.899999999999999,-0.076136395335197449,
29.920000000000002,-0.064741179347038269,
29.940000000000001,-0.064861379563808441,
29.960000000000001,-0.062505409121513367,
29.98,-0.061880350112915039,
30,-0.062697730958461761,75.539573669433594
30.02,-0.047287743538618088,
30.039999999999999,-0.050028365105390549,
30.059999999999999,-0.044811569154262543,
30.079999999999998,-0.042359434068202972,
30.100000000000001,-0.037286877632141113,
30.120000000000001,-0.027862986549735069,
30.140000000000001,-0.034498177468776703,
30.16,-0.040556393563747406,
30.18,-0.035147272050380707,
30.199999999999999,-0.011924108490347862,
30.219999999999999,-0.015289783477783203,
30.239999999999998,-0.017044743523001671,
30.260000000000002,0.021612446755170822,
30.280000000000001,0.011491378769278526,
30.300000000000001,-0.028439959511160851,
30.32,-0.057625174522399902,
30.34,-0.15260934829711914,
30.359999999999999,0.34644824266433716,
30.379999999999999,0.65289300680160522,
30.399999999999999,-0.014833013527095318,
30.420000000000002,-0.15056590735912323,
30.440000000000001,-0.044595204293727875,
30.460000000000001,-0.012044310569763184,
30.48,-0.0049523515626788139,
30.5,0.020242135971784592,
30.52,0.052576661109924316,
30.539999999999999,0.090176068246364594,
30.559999999999999,0.1675625741481781,
30.579999999999998,0.23737630248069763,
30.600000000000001,0.24105450510978699,
30.620000000000001,0.15073418617248535,
30.640000000000001,0.029569864273071289,
30.66,-0.04046022891998291,
30.68,-0.08132915198802948,
30.699999999999999,-0.079357825219631195,
30.719999999999999,-0.0699339359998703,
30.739999999999998,-0.069765649735927582,
30.760000000000002,-0.071664854884147644,
30.780000000000001,-0.077266298234462738,
30.800000000000001,-0.071208082139492035,
30.82,-0.048634015023708344,
30.84,-0.05151887983083725,
30.859999999999999,-0.047263704240322113,
30.879999999999999,-0.041998825967311859,
30.899999999999999,-0.042335391044616699,
30.920000000000002,-0.046181879937648773,
30.940000000000001,-0.03476262092590332,
30.960000000000001,-0.031420987099409103,
30.98,0.0025482974015176296,
31,-0.006707310676574707,75
31.02,-0.041566096246242523,
31.039999999999999,-0.040700636804103851,
31.059999999999999,-0.15049378573894501,
31.079999999999998,0.050629377365112305,
31.100000000000001,0.65171504020690918,
31.120000000000001,0.20273387432098389,
31.140000000000001,-0.1893913745880127,
31.16,-0.087435446679592133,
31.18,-0.039690934121608734,
31.199999999999999,-0.019520919770002365,
31.219999999999999,-0.0026684999465942383,
31.239999999999998,0.02416074275970459,
31.260000000000002,0.067049071192741394,
31.280000000000001,0.12046714872121811,
31.300000000000001,0.19573807716369629,
31.32,0.23194313049316406,
31.34,0.16282658278942108,
31.359999999999999,0.040147703140974045,
31.379999999999999,-0.045172177255153656,
31.399999999999999,-0.090176068246364594,
31.420000000000002,-0.10548989474773407,
31.440000000000001,-0.086545944213867188,
31.460000000000001,-0.086930595338344574,
31.48,-0.093373462557792664,
31.5,-0.10027309507131577,
31.52,-0.076112352311611176,
31.539999999999999,-0.072626471519470215,
31.559999999999999,-0.075920030474662781,
31.579999999999998,-0.064212284982204437,
31.600000000000001,-0.055966377258300781,
31.620000000000001,-0.067722201347351074,
31.640000000000001,-0.070823431015014648,
31.66,-0.057312648743391037,
31.68,-0.053297877311706543,
31.699999999999999,-0.036974351853132248,
31.719999999999999,-0.039065878838300705,
31.739999999999998,-0.0059860944747924805,
31.760000000000002,-0.011635622009634972,
31.780000000000001,-0.047143500298261642,
31.800000000000001,-0.073732338845729828,
31.82,-0.17934243381023407,
31.84,0.14554142951965332,
31.859999999999999,0.69294452667236328,
31.879999999999999,0.11022587865591049,
31.899999999999999,-0.23324131965637207,
31.920000000000002,-0.07738649845123291,
31.940000000000001,-0.06320258229970932,
31.960000000000001,-0.062216918915510178,
31.98,0.016155242919921875,
32,0.027598541229963303,76.502731323242188
32.020000000000003,0.055918298661708832,
32.039999999999999,0.12118836492300034,
32.060000000000002,0.19359847903251648,
32.079999999999998,0.2246348112821579,
32.100000000000001,0.15044569969177246,
32.119999999999997,0.026011865586042404,
32.140000000000001,-0.076352760195732117,
32.159999999999997,-0.10202805697917938,
32.18,-0.10255694389343262,
32.200000000000003,-0.11037012189626694,
32.219999999999999,-0.098614297807216644,
32.240000000000002,-0.10111451148986816,
32.259999999999998,-0.096114084124565125,
32.280000000000001,-0.086041092872619629,
32.299999999999997,-0.084334217011928558,
32.32,-0.082627341151237488,
32.340000000000003,-0.073035165667533875,
32.359999999999999,-0.066375933587551117,
32.380000000000003,-0.074237190186977386,
32.399999999999999,-0.072458192706108093,
32.420000000000002,-0.066015325486660004,
32.439999999999998,-0.058658920228481293,
32.460000000000001,-0.046446323394775391,
32.479999999999997,-0.041998825967311859,
32.5,-0.032598972320556641,
32.520000000000003,0.0013222297420725226,
32.539999999999999,-0.011779865249991417,
32.560000000000002,-0.04365762323141098,
32.579999999999998,-0.065750882029533386,
32.600000000000001,-0.17713069915771484,
32.619999999999997,0.13811290264129639,
32.640000000000001,0.71974974870681763,
32.659999999999997,0.15176793932914734,
32.68,-0.18530449271202087,
32.700000000000003,-0.082675419747829437,
32.719999999999999,-0.038440823554992676,
32.740000000000002,-0.021588405594229698,
32.759999999999998,0.002091526985168457,
32.780000000000001,0.030892094597220421,
32.799999999999997,0.076184473931789398,
32.82,0.14128625392913818,
32.840000000000003,0.21497051417827606,
32.859999999999999,0.24951677024364471,
32.880000000000003,0.19201180338859558,
32.899999999999999,0.056783758103847504,
32.920000000000002,-0.033849082887172699,
32.939999999999998,-0.071664854884147644,
32.960000000000001,-0.075511336326599121,
32.979999999999997,-0.072722636163234711,
33,-0.075775787234306335,77.064216613769531
33.020000000000003,-0.067241393029689789,
33.039999999999999,-0.060654282569885254,
33.060000000000002,-0.05738477036356926,
33.079999999999998,-0.058130025863647461,
33.100000000000001,-0.047407947480678558,
33.119999999999997,-0.03937840461730957,
33.140000000000001,-0.040796797722578049,
33.159999999999997,-0.036012731492519379,
33.18,-0.032334528863430023,
33.200000000000003,-0.024304986000061035,
33.219999999999999,-0.030868053436279297,
33.240000000000002,-0.023030837997794151,
33.259999999999998,-0.013005932793021202,
33.280000000000001,0.00052889192011207342,
33.299999999999997,0.022093256935477257,
33.32,0.020939311012625694,
33.340000000000003,-0.0047600269317626953,
33.359999999999999,-0.031853716820478439,
33.380000000000003,-0.13085266947746277,
33.399999999999999,0.044114392250776291,
33.420000000000002,0.68241477012634277,
33.439999999999998,0.302021324634552,
33.460000000000001,-0.15977343916893005,
33.479999999999997,-0.078804895281791687,
33.5,-0.016539892181754112,
33.520000000000003,0.0054812431335449219,
33.539999999999999,0.019016068428754807,
33.560000000000002,0.040508311241865158,
33.579999999999998,0.084670782089233398,
33.600000000000001,0.14152666926383972,
33.619999999999997,0.21468202769756317,
33.640000000000001,0.25098323822021484,
33.659999999999997,0.20941714942455292,
33.68,0.085656449198722839,
33.700000000000003,-0.022261541336774826,
33.719999999999999,-0.063779555261135101,
33.740000000000002,-0.070967674255371094,
33.759999999999998,-0.068876147270202637,
33.780000000000001,-0.065246030688285828,
33.799999999999997,-0.075126692652702332,
33.82,-0.072650514543056488,
33.840000000000003,-0.060798525810241699,
33.859999999999999,-0.056855879724025726,
33.880000000000003,-0.056495271623134613,
33.899999999999999,-0.044715404510498047,
33.920000000000002,-0.039402447640895844,
33.939999999999998,-0.044619243592023849,
33.960000000000001,-0.039690934121608734,
33.979999999999997,-0.039787095040082932,
34,-0.043729744851589203,77.419357299804688
34.020000000000003,-0.032358568161725998,
34.039999999999999,-0.020722946152091026,
34.060000000000002,0.0072121620178222656,
34.079999999999998,0.012669364921748638,
34.100000000000001,-0.035652123391628265,
34.119999999999997,-0.038657188415527344,
34.140000000000001,-0.11972188949584961,
34.159999999999997,-0.060125391930341721,
34.18,0.59197425842285156,
34.200000000000003,0.39827963709831238,
34.219999999999999,-0.15657603740692139,
34.240000000000002,-0.10395129770040512,
34.259999999999998,-0.035820405930280685,
34.280000000000001,-0.020314257591962814,
34.299999999999997,0.0036541621666401625,
34.32,0.026901364326477051,
34.340000000000003,0.056495271623134613,
34.359999999999999,0.12022674083709717,
34.380000000000003,0.20095488429069519,
34.399999999999999,0.24583856761455536,
34.420000000000002,0.20511388778686523,
34.439999999999998,0.091185770928859711,
34.460000000000001,-0.020145973190665245,
34.479999999999997,-0.067890487611293793,
34.5,-0.076521039009094238,
34.520000000000003,-0.081593595445156097,
34.539999999999999,-0.086666151881217957,
34.560000000000002,-0.076665282249450684,
34.579999999999998,-0.076088309288024902,
34.600000000000001,-0.080199241638183594,
34.619999999999997,-0.069453120231628418,
34.640000000000001,-0.059211850166320801,
34.659999999999997,-0.056182742118835449,
34.68,-0.052865147590637207,
34.700000000000003,-0.059884987771511078,
34.719999999999999,-0.057312648743391037,
34.740000000000002,-0.04582127183675766,
34.759999999999998,-0.050917863845825195,
34.780000000000001,-0.049186944961547852,
34.799999999999997,-0.045196216553449631,
34.82,-0.036733947694301605,
34.840000000000003,-0.031036337837576866,
34.859999999999999,-0.02045850083231926,
34.880000000000003,0.011034607887268066,
34.899999999999999,0.00093758106231689453,
34.920000000000002,-0.032959580421447754,
34.939999999999998,-0.053297877311706543,
34.960000000000001,-0.17037531733512878,
34.979999999999997,0.17477473616600037,
35,0.70631110668182373,77.634010314941406
35.020000000000003,0.12539546191692352,
35.039999999999999,-0.16203324496746063,
35.060000000000002,-0.061856310814619064,
35.079999999999998,-0.027382176369428635,
35.100000000000001,-0.0083180274814367294,
35.119999999999997,0.01108268927782774,
35.140000000000001,0.038705270737409592,
35.159999999999997,0.09164254367351532,
35.18,0.14489233493804932,
35.200000000000003,0.21513879299163818,
35.219999999999999,0.26009461283683777,
35.240000000000002,0.18391013145446777,
35.259999999999998,0.048874419182538986,
35.280000000000001,-0.033969283103942871,
35.299999999999997,-0.068539582192897797,
35.32,-0.073035165667533875,
35.340000000000003,-0.066880784928798676,
35.359999999999999,-0.075920030474662781,
35.380000000000003,-0.06678462028503418,
35.399999999999999,-0.064741179347038269,
35.420000000000002,-0.058274269104003906,
35.439999999999998,-0.061471663415431976,
35.460000000000001,-0.056976079940795898,
35.479999999999997,-0.044186513870954514,
35.5,-0.046975217759609222,
35.520000000000003,-0.047287743538618088,
35.539999999999999,-0.042094986885786057,
35.560000000000002,-0.037647485733032227,
35.579999999999998,-0.036806069314479828,
35.600000000000001,-0.036685865372419357,
35.619999999999997,-0.035820405930280685,
35.640000000000001,-0.030291080474853516,
35.659999999999997,-0.022117298096418381,
35.68,-0.0253627710044384,
35.700000000000003,-0.00028848648071289062,
35.719999999999999,0.033127866685390472,
35.740000000000002,0.0011539459228515625,
35.759999999999998,-0.038705270737409592,
35.780000000000001,-0.081882081925868988,
35.799999999999997,-0.13866584002971649,
35.82,0.44388455152511597,
35.840000000000003,0.63226622343063354,
35.859999999999999,-0.050268769264221191,
35.880000000000003,-0.12712638080120087,
35.899999999999999,-0.048778258264064789,
35.920000000000002,-0.018895864486694336,
35.939999999999998,0.010169148445129395,
35.960000000000001,0.025482973083853722,
35.979999999999997,0.045196216553449631,
36,0.10955274105072021,76.923080444335938
36.020000000000003,0.17407755553722382,
36.039999999999999,0.23586174845695496,
36.060000000000002,0.24793009459972382,
36.079999999999998,0.15936474502086639,
36.100000000000001,0.025050243362784386,
36.119999999999997,-0.044643282890319824,
36.140000000000001,-0.061399541795253754,
36.159999999999997,-0.0738525390625,
36.18,-0.07101576030254364,
36.200000000000003,-0.061663985252380371,
36.219999999999999,-0.057601135224103928,
36.240000000000002,-0.057480931282043457,
36.259999999999998,-0.060654282569885254,
36.280000000000001,-0.04860997200012207,
36.299999999999997,-0.03692626953125,
36.32,-0.043633580207824707,
36.340000000000003,-0.041878622025251389,
36.359999999999999,-0.03908991813659668,
36.380000000000003,-0.038657188415527344,
36.399999999999999,-0.037455163896083832,
36.420000000000002,-0.038993757218122482,
36.439999999999998,-0.026011865586042404,
36.460000000000001,-0.015602311119437218,
36.479999999999997,-0.016083121299743652,
36.5,0.0097364187240600586,
36.520000000000003,0.014183918945491314,
36.539999999999999,-0.023295283317565918,
36.560000000000002,-0.043922066688537598,
36.579999999999998,-0.14265656471252441,
36.600000000000001,0.13515591621398926,
36.619999999999997,0.66931271553039551,
36.640000000000001,0.15073418617248535,
36.659999999999997,-0.15780210494995117,
36.68,-0.062769852578639984,
36.700000000000003,-0.023920338600873947,
36.719999999999999,0.00016828379011712968,
36.740000000000002,0.023848216980695724,
36.759999999999998,0.048129163682460785,
36.780000000000001,0.08661806583404541,
36.799999999999997,0.14635881781578064,
36.82,0.23504436016082764,
36.840000000000003,0.25708955526351929,
36.859999999999999,0.18936733901500702,
36.880000000000003,0.068779990077018738,
36.899999999999999,-0.022501945495605469,
36.920000000000002,-0.058658920228481293,
36.939999999999998,-0.068082809448242188,
36.960000000000001,-0.06075044721364975,
36.979999999999997,-0.060101352632045746,
37,-0.064404606819152832,76.086959838867188
37.020000000000003,-0.058322351425886154,
37.039999999999999,-0.054235458374023438,
37.060000000000002,-0.055677890777587891,
37.079999999999998,-0.034209690988063812,
37.100000000000001,-0.022838514298200607,
37.119999999999997,-0.039787095040082932,
37.140000000000001,-0.032671093940734863,
37.159999999999997,-0.01829485222697258,
37.18,-0.020145973190665245,
37.200000000000003,-0.033656757324934006,
37.219999999999999,-0.029449662193655968,
37.240000000000002,-0.017188986763358116,
37.259999999999998,-0.010048946365714073,
37.280000000000001,0.00096162164118140936,
37.299999999999997,0.023848216980695724,
37.32,0.022429823875427246,
37.340000000000003,-0.006611148826777935,
37.359999999999999,-0.042143069207668304,
37.380000000000003,-0.14640688896179199,
37.399999999999999,0.24062177538871765,
37.420000000000002,0.71369153261184692,
37.439999999999998,0.099744200706481934,
37.460000000000001,-0.14948408305644989,
37.479999999999997,-0.048008959740400314,
37.5,-0.0042311353608965874,
37.520000000000003,0.019232433289289474,
37.539999999999999,0.027310054749250412,
37.560000000000002,0.053345959633588791,
37.579999999999998,0.10633131116628647,
37.600000000000001,0.16943773627281189,
37.619999999999997,0.23348173499107361,
37.640000000000001,0.26302754878997803,
37.659999999999997,0.19581019878387451,
37.68,0.059981148689985275,
37.700000000000003,-0.027213891968131065,
37.719999999999999,-0.06000518798828125,
37.740000000000002,-0.061736106872558594,
37.759999999999998,-0.055245161056518555,
37.780000000000001,-0.060197513550519943,
37.799999999999997,-0.06245732307434082,
37.82,-0.058250229805707932,
37.840000000000003,-0.045100055634975433,
37.859999999999999,-0.053321920335292816,
37.880000000000003,-0.048393607139587402,
37.899999999999999,-0.027598541229963303,
37.920000000000002,-0.024353068321943283,
37.939999999999998,-0.037935972213745117,
37.960000000000001,-0.032502811402082443,
37.979999999999997,-0.029137134552001953,
38,-0.027598541229963303,75.313804626464844
38.020000000000003,-0.024401148781180382,
38.039999999999999,-0.018366973847150803,
38.060000000000002,-0.010914405807852745,
38.079999999999998,-0.013630986213684082,
38.100000000000001,9.6162162662949413e-05,
38.119999999999997,0.038825474679470062,
38.140000000000001,0.011924108490347862,
38.159999999999997,-0.018992027267813683,
38.18,-0.068058773875236511,
38.200000000000003,-0.13972362875938416,
38.219999999999999,0.39916914701461792,
38.240000000000002,0.67626041173934937,
38.259999999999998,-0.0073564052581787109,
38.280000000000001,-0.13775229454040527,
38.299999999999997,-0.032166242599487305,
38.32,0.0045917434617877007,
38.340000000000003,0.012260675430297852,
38.359999999999999,0.018895864486694336,
38.380000000000003,0.062216918915510178,
38.399999999999999,0.12255867570638657,
38.420000000000002,0.17564019560813904,
38.439999999999998,0.24329027533531189,
38.460000000000001,0.27442276477813721,
38.479999999999997,0.18489579856395721,
38.5,0.040580432862043381,
38.520000000000003,-0.038320623338222504,
38.539999999999999,-0.057312648743391037,
38.560000000000002,-0.055846177041530609,
38.579999999999998,-0.063827633857727051,
38.600000000000001,-0.067770287394523621,
38.619999999999997,-0.055870216339826584,
38.640000000000001,-0.045532785356044769,
38.659999999999997,-0.051879487931728363,
38.68,-0.056519310921430588,
38.700000000000003,-0.034618377685546875,
38.719999999999999,-0.027261972427368164,
38.740000000000002,-0.03567616268992424,
38.759999999999998,-0.03658970445394516,
38.780000000000001,-0.028127431869506836,
38.799999999999997,-0.022646188735961914,
38.82,-0.024665594100952148,
38.840000000000003,-0.018318891525268555,
38.859999999999999,-0.013655027374625206,
38.880000000000003,-0.0083420677110552788,
38.899999999999999,-0.0053129596635699272,
38.920000000000002,0.022165378555655479,
38.939999999999998,0.04262387752532959,
38.960000000000001,-0.0025002162437886,
38.979999999999997,-0.022141337394714355,
39,-0.11549075692892075,74.844070434570312
39.020000000000003,-0.036565661430358887,
39.039999999999999,0.65517687797546387,
39.060000000000002,0.42371451854705811,
39.079999999999998,-0.14895519614219666,
39.100000000000001,-0.087627768516540527,
39.119999999999997,-0.018102526664733887,
39.140000000000001,0.0043753786012530327,
39.159999999999997,0.016443729400634766,
39.18,0.032286446541547775,
39.200000000000003,0.073828503489494324,
39.219999999999999,0.1367906779050827,
39.240000000000002,0.1986229419708252,
39.259999999999998,0.24831473827362061,
39.280000000000001,0.23348173499107361,
39.299999999999997,0.12371262162923813,
39.32,-0.0068034729920327663,
39.340000000000003,-0.067986652255058289,
39.359999999999999,-0.068804025650024414,
39.380000000000003,-0.060846608132123947,
39.399999999999999,-0.075078606605529785,
39.420000000000002,-0.075655579566955566,
39.439999999999998,-0.061255298554897308,
39.460000000000001,-0.062216918915510178,
39.479999999999997,-0.055918298661708832,
39.5,-0.049042701721191406,
39.520000000000003,-0.053850810974836349,
39.539999999999999,-0.039739012718200684,
39.560000000000002,-0.035748284310102463,
39.579999999999998,-0.03937840461730957,
39.600000000000001,-0.037551324814558029,
39.619999999999997,-0.034161608666181564,
39.640000000000001,-0.01783808134496212,
39.659999999999997,-0.016972621902823448,
39.68,0.018222730606794357,
39.700000000000003,0.0065630674362182617,
39.719999999999999,-0.026156108826398849,
39.740000000000002,-0.053177677094936371,
39.759999999999998,-0.15342673659324646,
39.780000000000001,0.12599647045135498,
39.799999999999997,0.66570663452148438,
39.82,0.14652709662914276,
39.840000000000003,-0.17280340194702148,
39.859999999999999,-0.068347260355949402,
39.880000000000003,-0.036733947694301605,
39.899999999999999,-0.020602744072675705,
39.920000000000002,0.014568567276000977,
39.939999999999998,0.035531919449567795,
39.960000000000001,0.07921358197927475,
39.979999999999997,0.14568567276000977,
40,0.20884017646312714,74.733100891113281
40.020000000000003,0.24444422125816345,
40.039999999999999,0.18674692511558533,
40.060000000000002,0.052360296249389648,
40.079999999999998,-0.039306282997131348,
40.100000000000001,-0.076665282249450684,
40.119999999999997,-0.091618500649929047,
40.140000000000001,-0.078107714653015137,
40.159999999999997,-0.070943638682365417,
40.18,-0.078444287180900574,
40.200000000000003,-0.085416041314601898,
40.219999999999999,-0.074501633644104004,
40.240000000000002,-0.062529444694519043,
40.259999999999998,-0.057480931282043457,
40.280000000000001,-0.049379270523786545,
40.299999999999997,-0.048585932701826096,
40.32,-0.06120721623301506,
40.340000000000003,-0.048032999038696289,
40.359999999999999,-0.043681662529706955,
40.380000000000003,-0.056206785142421722,
40.399999999999999,-0.033175945281982422,
40.420000000000002,-0.028464000672101974,
40.439999999999998,-0.010698040947318077,
40.460000000000001,0.010938446037471294,
40.479999999999997,-0.02291063591837883,
40.5,-0.043585501611232758,
40.520000000000003,-0.10046541690826416,
40.539999999999999,-0.12876114249229431,
40.560000000000002,0.48783063888549805,
40.579999999999998,0.54240268468856812,
40.600000000000001,-0.10702848434448242,
40.619999999999997,-0.12604455649852753,
40.640000000000001,-0.053850810974836349,
40.659999999999997,-0.026420554146170616,
40.68,-9.6162162662949413e-05,
40.700000000000003,0.020434459671378136,
40.719999999999999,0.050124526023864746,
40.740000000000002,0.095152460038661957,
40.759999999999998,0.17003874480724335,
40.780000000000001,0.24271330237388611,
40.799999999999997,0.24035732448101044,
40.82,0.12376070022583008,
40.840000000000003,-0.0076689324341714382,
40.859999999999999,-0.065053701400756836,
40.880000000000003,-0.079934798181056976,
40.899999999999999,-0.081641674041748047,
40.920000000000002,-0.08058389276266098,
40.939999999999998,-0.072025462985038757,
40.960000000000001,-0.073059201240539551,
40.979999999999997,-0.070583030581474304,
41,-0.067746244370937347,75.403953552246094
41.020000000000003,-0.064308449625968933,
41.039999999999999,-0.044450961053371429,
41.060000000000002,-0.046133797615766525,
41.079999999999998,-0.04598955437541008,
41.100000000000001,-0.035868488252162933,
41.119999999999997,-0.03413756936788559,
41.140000000000001,-0.032671093940734863,
41.159999999999997,-0.02416074275970459,
41.18,-0.014568567276000977,
41.200000000000003,-0.015770595520734787,
41.219999999999999,0.022574067115783691,
41.240000000000002,0.030675729736685753,
41.259999999999998,-0.02569933794438839,
41.280000000000001,-0.04798492044210434,
41.299999999999997,-0.14087757468223572,
41.32,0.082314811646938324,
41.340000000000003,0.70813816785812378,
41.359999999999999,0.25908491015434265,
41.380000000000003,-0.16828379034996033,
41.399999999999999,-0.065871082246303558,
41.420000000000002,-0.016035040840506554,
41.439999999999998,-0.0021396081428974867,
41.460000000000001,0.015097459778189659,
41.479999999999997,0.041830539703369141,
41.5,0.089695259928703308,
41.520000000000003,0.14424324035644531,
41.539999999999999,0.21706204116344452,
41.560000000000002,0.27435064315795898,
41.579999999999998,0.22492329776287079,
41.600000000000001,0.087772011756896973,
41.619999999999997,-0.017525553703308105,
41.640000000000001,-0.05430757999420166,
41.659999999999997,-0.057601135224103928,
41.68,-0.060317717492580414,
41.700000000000003,-0.052288174629211426,
41.719999999999999,-0.04257579892873764,
41.740000000000002,-0.045869350433349609,
41.759999999999998,-0.050076447427272797,
41.780000000000001,-0.045652985572814941,
41.799999999999997,-0.029425621032714844,
41.82,-0.023944377899169922,
41.840000000000003,-0.028968852013349533,
41.859999999999999,-0.025603175163269043,
41.880000000000003,-0.021900933235883713,
41.899999999999999,-0.019977688789367676,
41.920000000000002,-0.0087507572025060654,
41.939999999999998,-0.0035580000840127468,
41.960000000000001,-0.0014905135612934828,
41.979999999999997,0.02644459530711174,
42,0.047383904457092285,76.271186828613281
42.020000000000003,0.00430325698107481,
42.039999999999999,-0.019064148887991905,
42.060000000000002,-0.1100335568189621,
42.079999999999998,-0.0021636486053466797,
42.100000000000001,0.66457670927047729,
42.119999999999997,0.37919145822525024,
42.140000000000001,-0.14152666926383972,
42.159999999999997,-0.069188676774501801,
42.18,-0.0017068784218281507,
42.200000000000003,0.010649959556758404,
42.219999999999999,0.033728878945112228,
42.240000000000002,0.058298312127590179,
42.259999999999998,0.091882944107055664,
42.280000000000001,0.14861862361431122,
42.299999999999997,0.21927377581596375,
42.32,0.26843667030334473,
42.340000000000003,0.24302582442760468,
42.359999999999999,0.11714955419301987,
42.380000000000003,-0.0084141893312335014,
42.399999999999999,-0.035243432968854904,
42.420000000000002,-0.046470366418361664,
42.439999999999998,-0.048489771783351898,
42.460000000000001,-0.045941472053527832,
42.479999999999997,-0.051446758210659027,
42.5,-0.05413929745554924,
42.520000000000003,-0.045701067894697189,
42.539999999999999,-0.033031702041625977,
42.560000000000002,-0.026588838547468185,
42.579999999999998,-0.032214324921369553,
42.600000000000001,-0.018270811066031456,
42.619999999999997,-0.02353568933904171,
42.640000000000001,-0.021612446755170822,
42.659999999999997,-0.0096402568742632866,
42.68,-0.011900067329406738,
42.700000000000003,0.010842284187674522,
42.719999999999999,0.036181014031171799,
42.740000000000002,-0.006707310676574707,
42.759999999999998,-0.01709282398223877,
42.780000000000001,-0.095753476023674011,
42.799999999999997,-0.073732338845729828,
42.82,0.57264566421508789,
42.840000000000003,0.45395752787590027,
42.859999999999999,-0.13344904780387878,
42.880000000000003,-0.09551306813955307,
42.899999999999999,-0.027334094047546387,
42.920000000000002,-0.0026684999465942383,
42.939999999999998,0.017116865143179893,
42.960000000000001,0.040652554482221603,
42.979999999999997,0.069164633750915527,
43,0.12844860553741455,77.634010314941406
43.020000000000003,0.20280599594116211,
43.039999999999999,0.24785797297954559,
43.060000000000002,0.22682249546051025,
43.079999999999998,0.11419256776571274,
43.100000000000001,-0.0029089055024087429,
43.119999999999997,-0.053105555474758148,
43.140000000000001,-0.067986652255058289,
43.159999999999997,-0.064765214920043945,
43.18,-0.066039368510246277,
43.200000000000003,-0.064572893083095551,
43.219999999999999,-0.059884987771511078,
43.240000000000002,-0.058466594666242599,
43.259999999999998,-0.049499474465847015,
43.280000000000001,-0.048513811081647873,
43.299999999999997,-0.031829677522182465,
43.32,-0.03334423154592514,
43.340000000000003,-0.027261972427368164,
43.359999999999999,-0.029786229133605957,
43.380000000000003,-0.02291063591837883,
43.399999999999999,-0.023872256278991699,
43.420000000000002,-0.014688770286738873,
43.439999999999998,0.0082218647003173828,
43.460000000000001,0.033440392464399338,
43.479999999999997,0.01185198687016964,
43.5,-0.014280080795288086,
43.520000000000003,-0.050869785249233246,
43.539999999999999,-0.15554229915142059,
43.560000000000002,0.29497742652893066,
43.579999999999998,0.68746328353881836,
43.600000000000001,0.040724676102399826,
43.619999999999997,-0.1438826322555542,
43.640000000000001,-0.044979851692914963,
43.659999999999997,-0.0048081083223223686,
43.68,0.00067313516046851873,
43.700000000000003,0.020482540130615234,
43.719999999999999,0.063322782516479492,
43.740000000000002,0.10700444877147675,
43.759999999999998,0.16494214534759521,
43.780000000000001,0.2316306084394455,
43.799999999999997,0.26514312624931335,
43.82,0.1791260689496994,
43.840000000000003,0.039186082780361176,
43.859999999999999,-0.044595204293727875,
43.880000000000003,-0.064717136323451996,
43.899999999999999,-0.06748180091381073,
43.920000000000002,-0.054115258157253265,
43.939999999999998,-0.060630243271589279,
43.960000000000001,-0.071616768836975098,
43.979999999999997,-0.050629377365112305,
44,-0.041301649063825607,78.504676818847656
44.020000000000003,-0.044523082673549652,
44.039999999999999,-0.044931769371032715,
44.060000000000002,-0.029810270294547081,
44.079999999999998,-0.024809837341308594,
44.100000000000001,-0.022934675216674805,
44.119999999999997,-0.02416074275970459,
44.140000000000001,-0.019088190048933029,
44.159999999999997,-0.012092391960322857,
44.18,-0.0047119460068643093,
44.200000000000003,0.0073804459534585476,
44.219999999999999,0.034233730286359787,
44.240000000000002,0.029401581734418869,
44.259999999999998,-0.012885729782283306,
44.280000000000001,-0.029425621032714844,
44.299999999999997,-0.13236722350120544,
44.32,0.072674557566642761,
44.340000000000003,0.71549457311630249,
44.359999999999999,0.29627561569213867,
44.380000000000003,-0.16386032104492188,
44.399999999999999,-0.06531815230846405,
44.420000000000002,0.0013943513622507453,
44.439999999999998,0.0077170133590698242,
44.460000000000001,0.026083987206220627,
44.479999999999997,0.043513379991054535,
44.5,0.091955065727233887,
44.520000000000003,0.15977343916893005,
44.539999999999999,0.23030838370323181,
44.560000000000002,0.26434978842735291,
44.579999999999998,0.22148549556732178,
44.600000000000001,0.10337432473897934,
44.619999999999997,-0.01214047335088253,
44.640000000000001,-0.045220255851745605,
44.659999999999997,-0.056038498878479004,
44.68,-0.055653851479291916,
44.700000000000003,-0.053442120552062988,
44.719999999999999,-0.048489771783351898,
44.740000000000002,-0.037383042275905609,
44.759999999999998,-0.043032567948102951,
44.780000000000001,-0.037984054535627365,
44.799999999999997,-0.02661287784576416,
44.82,-0.020891230553388596,
44.840000000000003,-0.016155242919921875,
44.859999999999999,-0.01675625704228878,
44.880000000000003,-0.0040628514252603054,
44.899999999999999,-0.0030291080474853516,
44.920000000000002,-0.007043878547847271,
44.939999999999998,0.0057697296142578125,
44.960000000000001,0.014953216537833214,
44.979999999999997,0.031204622238874435,
45,0.052384339272975922,79.245285034179688
45.020000000000003,0.002067486522719264,
45.039999999999999,-0.0071640810929238796,
45.060000000000002,-0.07563154399394989,
45.079999999999998,-0.072121620178222656,
45.100000000000001,0.57899236679077148,
45.119999999999997,0.50665438175201416,
45.140000000000001,-0.10765354335308075,
45.159999999999997,-0.076448917388916016,
45.18,-0.0038464865647256374,
45.200000000000003,0.006827513687312603,
45.219999999999999,0.023631852120161057,
45.240000000000002,0.057120323181152344,
45.259999999999998,0.085728570818901062,
45.280000000000001,0.1340019702911377,
45.299999999999997,0.19823829829692841,
45.32,0.2600705623626709,
45.340000000000003,0.24831473827362061,
45.359999999999999,0.13748785853385925,
45.380000000000003,0.017309188842773438,
45.399999999999999,-0.043801866471767426,
45.420000000000002,-0.052408378571271896,
45.439999999999998,-0.046590566635131836,
45.460000000000001,-0.044258635491132736,
45.479999999999997,-0.056543350219726562,
45.5,-0.054331623017787933,
45.520000000000003,-0.040099620819091797,
45.539999999999999,-0.032430689781904221,
45.560000000000002,-0.030988257378339767,
45.579999999999998,-0.032166242599487305,
45.600000000000001,-0.017309188842773438,
45.619999999999997,-0.020073851570487022,
45.640000000000001,-0.02199709415435791,
45.659999999999997,-0.017405351623892784,
45.68,-0.00016828379011712968,
45.700000000000003,0.021011432632803917,
45.719999999999999,0.0098085403442382812,
45.740000000000002,-0.014712810516357422,
45.759999999999998,-0.036902230232954025,
45.780000000000001,-0.14489233493804932,
45.799999999999997,0.093710027635097504,
45.82,0.67681336402893066,
45.840000000000003,0.19968073070049286,
45.859999999999999,-0.16285061836242676,
45.880000000000003,-0.069501206278800964,
45.899999999999999,-0.028752487152814865,
45.920000000000002,0.0070198378525674343,
45.939999999999998,0.016972621902823448,
45.960000000000001,0.034906864166259766,
45.979999999999997,0.080535814166069031,
46,0.14258444309234619,80
46.020000000000003,0.19792577624320984,
46.039999999999999,0.24446825683116913,
46.060000000000002,0.183982253074646,
46.079999999999998,0.039282243698835373,
46.100000000000001,-0.047023296356201172,
46.119999999999997,-0.079405903816223145,
46.140000000000001,-0.089743338525295258,
46.159999999999997,-0.073924660682678223,
46.18,-0.085127554833889008,
46.200000000000003,-0.086714230477809906,
46.219999999999999,-0.082026325166225433,
46.240000000000002,-0.082218647003173828,
46.259999999999998,-0.073011122643947601,
46.280000000000001,-0.054451823234558105,
46.299999999999997,-0.055942337960004807,
46.32,-0.055822134017944336,
46.340000000000003,-0.05675971508026123,
46.359999999999999,-0.047816634178161621,
46.380000000000003,-0.049451392143964767,
46.399999999999999,-0.043729744851589203,
46.420000000000002,-0.026997527107596397,
46.439999999999998,-0.0092315673828125,
46.460000000000001,0.0086545944213867188,
46.479999999999997,-0.03937840461730957,
46.5,-0.047167539596557617,
46.520000000000003,-0.13895432651042938,
46.539999999999999,-0.066183611750602722,
46.560000000000002,0.60166263580322266,
46.579999999999998,0.38666805624961853,
46.600000000000001,-0.16825973987579346,
46.619999999999997,-0.11008163541555405,
46.640000000000001,-0.049283109605312347,
46.659999999999997,-0.016828378662467003,
46.68,-0.0097604598850011826,
46.700000000000003,0.011876027099788189,
46.719999999999999,0.054115258157253265,
46.740000000000002,0.10729293525218964,
46.759999999999998,0.16943773627281189,
46.780000000000001,0.23114979267120361,
46.799999999999997,0.20569086074829102,
46.82,0.080559849739074707,
46.840000000000003,-0.039498608559370041,
46.859999999999999,-0.075799822807312012,
46.880000000000003,-0.087411403656005859,
46.899999999999999,-0.084262095391750336,
46.920000000000002,-0.085295841097831726,
46.939999999999998,-0.083420678973197937,
46.960000000000001,-0.082723498344421387,
46.979999999999997,-0.077554784715175629,
47,-0.066424012184143066,80.305923461914062
47.020000000000003,-0.072890922427177429,
47.039999999999999,-0.072217784821987152,
47.060000000000002,-0.057096283882856369,
47.079999999999998,-0.057312648743391037,
47.100000000000001,-0.054788392037153244,
47.119999999999997,-0.042647920548915863,
47.140000000000001,-0.041974782943725586,
47.159999999999997,-0.034786663949489594,
47.18,-0.0074766082689166069,
47.200000000000003,0.013606945984065533,
47.219999999999999,-0.035147272050380707,
47.240000000000002,-0.051759283989667892,
47.259999999999998,-0.12270291894674301,
47.280000000000001,-0.11243760585784912,
47.299999999999997,0.54990333318710327,
47.32,0.47472855448722839,
47.340000000000003,-0.15164773166179657,
47.359999999999999,-0.12114028632640839,
47.380000000000003,-0.049210987985134125,
47.399999999999999,-0.041157405823469162,
47.420000000000002,-0.015650391578674316,
47.439999999999998,0.015698473900556564,
47.460000000000001,0.041854582726955414,
47.479999999999997,0.088805757462978363,
47.5,0.16083121299743652,
47.520000000000003,0.23502032458782196,
47.539999999999999,0.20554661750793457,
47.560000000000002,0.08952697366476059,
47.579999999999998,-0.024665594100952148,
47.600000000000001,-0.091858908534049988,
47.619999999999997,-0.086185336112976074,
47.640000000000001,-0.091858908534049988,
47.659999999999997,-0.091354057192802429,
47.68,-0.090344354510307312,
47.700000000000003,-0.084214016795158386,
47.719999999999999,-0.07596810907125473,
47.740000000000002,-0.082627341151237488,
47.759999999999998,-0.074645876884460449,
47.780000000000001,-0.073227487504482269,
47.799999999999997,-0.062385201454162598,
47.82,-0.058105986565351486,
47.840000000000003,-0.054475866258144379,
47.859999999999999,-0.052841108292341232,
47.880000000000003,-0.046326123178005219,
47.899999999999999,-0.029401581734418869,
47.920000000000002,-0.013054013252258301,
47.939999999999998,0.020722946152091026,
47.960000000000001,-0.023679932579398155,
47.979999999999997,-0.053418081253767014,
48,-0.085968971252441406,80.614204406738281
48.020000000000003,-0.1398678719997406,
48.039999999999999,0.42484444379806519,
48.060000000000002,0.57334285974502563,
48.079999999999998,-0.076064273715019226,
48.100000000000001,-0.13816098868846893,
48.119999999999997,-0.047600269317626953,
48.140000000000001,-0.016179284080862999,
48.159999999999997,-0.01216451358050108,
48.18,0.019208392128348351,
48.200000000000003,0.054980717599391937,
48.219999999999999,0.091714665293693542,
48.240000000000002,0.16138415038585663,
48.259999999999998,0.23665508627891541,
48.280000000000001,0.23155848681926727,
48.299999999999997,0.11904875934123993,
48.32,-0.00016828379011712968,
48.340000000000003,-0.059067606925964355,
48.359999999999999,-0.075030528008937836,
48.380000000000003,-0.068178974092006683,
48.399999999999999,-0.077122054994106293,
48.420000000000002,-0.078420244157314301,
48.439999999999998,-0.070126257836818695,
48.460000000000001,-0.065005622804164886,
48.479999999999997,-0.057120323181152344,
48.5,-0.064452692866325378,
48.520000000000003,-0.050244729965925217,
48.539999999999999,-0.042792163789272308,
48.560000000000002,-0.04752814769744873,
48.579999999999998,-0.032887458801269531,
48.600000000000001,-0.022550027817487717,
48.619999999999997,0.0031252703629434109,
48.640000000000001,-0.019304554909467697,
48.659999999999997,-0.047672390937805176,
48.68,-0.073443852365016937,
48.700000000000003,-0.16640862822532654,
48.719999999999999,0.26925405859947205,
48.740000000000002,0.60639858245849609,
48.759999999999998,-0.0086065139621496201,
48.780000000000001,-0.1682116687297821,
48.799999999999997,-0.07135232537984848,
48.82,-0.039883255958557129,
48.840000000000003,-0.025266608223319054,
48.859999999999999,0.0053850812837481499,
48.880000000000003,0.027887027710676193,
48.899999999999999,0.070534944534301758,
48.920000000000002,0.13808886706829071,
48.939999999999998,0.19924800097942352,
48.960000000000001,0.20583510398864746,
48.979999999999997,0.12022674083709717,
49,-0.011250972747802734,81.395347595214844
49.020000000000003,-0.081088744103908539,
49.039999999999999,-0.10077794641256332,
49.060000000000002,-0.094527408480644226,
49.079999999999998,-0.099912486970424652,
49.100000000000001,-0.1054658517241478,
49.119999999999997,-0.10320603847503662,
49.140000000000001,-0.0883970707654953,
49.159999999999997,-0.094503365457057953,
49.18,-0.076232552528381348,
49.200000000000003,-0.075030528008937836,
49.219999999999999,-0.07060706615447998,
49.240000000000002,-0.071135960519313812,
49.259999999999998,-0.064933501183986664,
49.280000000000001,-0.063034296035766602,
49.299999999999997,-0.044090352952480316,
49.32,-0.01276552677154541,
49.340000000000003,-0.039282243698835373,
49.359999999999999,-0.063779555261135101,
49.380000000000003,-0.081401273608207703,
49.399999999999999,-0.19571404159069061,
49.420000000000002,0.13700704276561737,
49.439999999999998,0.64332485198974609,
49.460000000000001,0.085367962718009949,
49.479999999999997,-0.19506494700908661,
49.5,-0.10142704099416733,
49.520000000000003,-0.061639945954084396,
49.539999999999999,-0.035772323608398438,
49.560000000000002,-0.015530189499258995,
49.579999999999998,-0.0008895000210031867,
49.600000000000001,0.043922066688537598,
49.619999999999997,0.11914491653442383,
49.640000000000001,0.18566510081291199,
49.659999999999997,0.20172417163848877,
49.68,0.12436171621084213,
49.700000000000003,0.0096642971038818359,
49.719999999999999,-0.070438787341117859,
49.740000000000002,-0.10642747581005096,
49.759999999999998,-0.10450422763824463,
49.780000000000001,-0.094311043620109558,
49.799999999999997,-0.096883378922939301,
49.82,-0.09193103015422821,
49.840000000000003,-0.093926392495632172,
49.859999999999999,-0.089623138308525085,
49.880000000000003,-0.080271363258361816,
49.899999999999999,-0.083132192492485046,
49.920000000000002,-0.076521039009094238,
49.939999999999998,-0.070486865937709808,
49.960000000000001,-0.064428649842739105,
49.979999999999997,-0.060822568833827972,
50,-0.0530574731528759,82.352943420410156
50.020000000000003,-0.014039675705134869,
50.039999999999999,-0.017429392784833908,
50.060000000000002,-0.059981148689985275,
50.079999999999998,-0.07522284984588623,
50.100000000000001,-0.17008683085441589,
50.119999999999997,0.0012981891632080078,
50.140000000000001,0.63575208187103271,
50.159999999999997,0.25569519400596619,
50.18,-0.18931925296783447,
50.200000000000003,-0.10279735177755356,
50.219999999999999,-0.060702364891767502,
50.240000000000002,-0.032046042382717133,
50.259999999999998,-0.012020270340144634,
50.280000000000001,0.01108268927782774,
50.299999999999997,0.046229958534240723,
50.32,0.1045282706618309,
50.340000000000003,0.1862180233001709,
50.359999999999999,0.22802452743053436,
50.380000000000003,0.16886076331138611,
50.399999999999999,0.043321054428815842,
50.420000000000002,-0.054067175835371017,
50.439999999999998,-0.092652246356010437,
50.460000000000001,-0.094936095178127289,
50.479999999999997,-0.089334651827812195,
50.5,-0.088925957679748535,
50.520000000000003,-0.083661079406738281,
50.539999999999999,-0.085031390190124512,
50.560000000000002,-0.090608797967433929,
50.579999999999998,-0.078203879296779633,
50.600000000000001,-0.071232125163078308,
50.619999999999997,-0.063058339059352875,
50.640000000000001,-0.060293674468994141,
50.659999999999997,-0.057144366204738617,
50.68,-0.042359434068202972,
50.700000000000003,-0.036084853112697601,
50.719999999999999,-0.025050243362784386,
50.740000000000002,0.015289783477783203,
50.759999999999998,0.0068034729920327663,
50.780000000000001,-0.02906501293182373,
50.799999999999997,-0.045172177255153656,
50.82,-0.14688770473003387,
50.840000000000003,0.083901487290859222,
50.859999999999999,0.67599594593048096,
50.880000000000003,0.20573894679546356,
50.899999999999999,-0.17451028525829315,
50.920000000000002,-0.067193314433097839,
50.939999999999998,-0.025939743965864182,
50.960000000000001,-0.014448365196585655,
50.979999999999997,0.012501081451773643,
51,0.040772758424282074,83.478263854980469
51.020000000000003,0.072001419961452484,
51.039999999999999,0.13054013252258301,
51.060000000000002,0.21290302276611328,
51.079999999999998,0.24437209963798523,
51.100000000000001,0.17285148799419403,
51.119999999999997,0.042960446327924728,
51.140000000000001,-0.040436189621686935,
51.159999999999997,-0.066712498664855957,
51.18,-0.075367093086242676,
51.200000000000003,-0.076689325273036957,
51.219999999999999,-0.074838206171989441,
51.240000000000002,-0.072794757783412933,
51.259999999999998,-0.070679187774658203,
51.280000000000001,-0.065173909068107605,
51.299999999999997,-0.055725973099470139,
51.32,-0.047480069100856781,
51.340000000000003,-0.046422284096479416,
51.359999999999999,-0.044138431549072266,
51.380000000000003,-0.030988257378339767,
51.399999999999999,-0.013751189224421978,
51.420000000000002,0.0049763917922973633,
51.439999999999998,-0.024930041283369064,
51.460000000000001,-0.045316420495510101,
51.479999999999997,-0.07072727382183075,
51.5,-0.1607590913772583,
51.520000000000003,0.24271330237388611,
51.539999999999999,0.60921132564544678,
51.560000000000002,0.0051206350326538086,
51.579999999999998,-0.16496619582176208,
51.600000000000001,-0.068251095712184906,
51.619999999999997,-0.037214756011962891,
51.640000000000001,-0.01168370246887207,
51.659999999999997,0.0033656756859272718,
51.68,0.029449662193655968,
51.700000000000003,0.075174771249294281,
51.719999999999999,0.14419516921043396,
51.740000000000002,0.20230114459991455,
51.759999999999998,0.20160397887229919,
51.780000000000001,0.11404832452535629,
51.799999999999997,-0.0053129596635699272,
51.82,-0.077987514436244965,
51.840000000000003,-0.094262957572937012,
51.859999999999999,-0.098397932946681976,
51.880000000000003,-0.092748403549194336,
51.899999999999999,-0.099239349365234375,
51.920000000000002,-0.094623565673828125,
51.939999999999998,-0.089382730424404144,
51.960000000000001,-0.083661079406738281,
51.979999999999997,-0.069380998611450195,
52,-0.075126692652702332,84.507041931152344
52.020000000000003,-0.066640377044677734,
52.039999999999999,-0.065173909068107605,
52.060000000000002,-0.06325066089630127,
52.079999999999998,-0.061880350112915039,
52.100000000000001,-0.047480069100856781,
52.119999999999997,-0.0043272972106933594,
52.140000000000001,-0.013174216262996197,
52.159999999999997,-0.061327420175075531,
52.18,-0.060101352632045746,
52.200000000000003,-0.15986959636211395,
52.219999999999999,-0.043753784149885178,
52.240000000000002,0.60296082496643066,
52.259999999999998,0.28461596369743347,
52.280000000000001,-0.18931925296783447,
52.299999999999997,-0.11404832452535629,
52.32,-0.05767325684428215,
52.340000000000003,-0.040989123284816742,
52.359999999999999,-0.022886594757437706,
52.380000000000003,-0.0045917434617877007,
52.399999999999999,0.03476262092590332,
52.420000000000002,0.10166744887828827,
52.439999999999998,0.16287466883659363,
52.460000000000001,0.20006537437438965,
52.479999999999997,0.15965323150157928,
52.5,0.032671093940734863,
52.520000000000003,-0.06531815230846405,
52.539999999999999,-0.09015202522277832,
52.560000000000002,-0.097460351884365082,
52.579999999999998,-0.099648043513298035,
52.600000000000001,-0.091017484664916992,
52.619999999999997,-0.10354261100292206,
52.640000000000001,-0.09871046245098114,
52.659999999999997,-0.07563154399394989,
52.68,-0.084262095391750336,
52.700000000000003,-0.085464119911193848,
52.719999999999999,-0.071809098124504089,
52.740000000000002,-0.063923798501491547,
52.759999999999998,-0.065630674362182617,
52.780000000000001,-0.066303811967372894,
52.799999999999997,-0.058130025863647461,
52.82,-0.046927135437726974,
52.840000000000003,-0.015938878059387207,
52.859999999999999,-0.006827513687312603,
52.880000000000003,-0.039162039756774902,
52.899999999999999,-0.058658920228481293,
52.920000000000002,-0.13294419646263123,
52.939999999999998,-0.12388090789318085,
52.960000000000001,0.52225673198699951,
52.979999999999997,0.46172261238098145,
53,-0.15061399340629578,84.805648803710938
53.020000000000003,-0.12205382436513901,
53.039999999999999,-0.051110189408063889,
53.060000000000002,-0.03368079662322998,
53.079999999999998,-0.011996230110526085,
53.100000000000001,-0.0013703107833862305,
53.119999999999997,0.034498177468776703,
53.140000000000001,0.10185977071523666,
53.159999999999997,0.17939051985740662,
53.18,0.22172591090202332,
53.200000000000003,0.18922309577465057,
53.219999999999999,0.074165068566799164,
53.240000000000002,-0.030435323715209961,
53.259999999999998,-0.077915392816066742,
53.280000000000001,-0.086954638361930847,
53.299999999999997,-0.092628203332424164,
53.32,-0.087122917175292969,
53.340000000000003,-0.070703230798244476,
53.359999999999999,-0.07346789538860321,
53.380000000000003,-0.087964341044425964,
53.399999999999999,-0.076184473931789398,
53.420000000000002,-0.062986217439174652,
53.439999999999998,-0.055413447320461273,
53.460000000000001,-0.057745378464460373,
53.479999999999997,-0.058033864945173264,
53.5,-0.04291236400604248,
53.520000000000003,-0.039811134338378906,
53.539999999999999,-0.03351251408457756,
53.560000000000002,-0.028944810852408409,
53.579999999999998,-0.012573203071951866,
53.600000000000001,0.027862986549735069,
53.619999999999997,-0.0047600269317626953,
53.640000000000001,-0.039811134338378906,
53.659999999999997,-0.073371730744838715,
53.68,-0.15215258300304413,
53.700000000000003,0.39231759309768677,
53.719999999999999,0.63676178455352783,
53.740000000000002,-0.043393176048994064,
53.759999999999998,-0.13229510188102722,
53.780000000000001,-0.039931338280439377,
53.799999999999997,-0.011587540619075298,
53.82,0.006659229751676321,
53.840000000000003,0.033656757324934006,
53.859999999999999,0.064068041741847992,
53.880000000000003,0.10599474608898163,
53.899999999999999,0.18090507388114929,
53.920000000000002,0.23884277045726776,
53.939999999999998,0.23946782946586609,
53.960000000000001,0.14655113220214844,
53.979999999999997,0.029401581734418869,
54,-0.041566096246242523,84.656089782714844
54.020000000000003,-0.061784189194440842,
54.039999999999999,-0.056519310921430588,
54.060000000000002,-0.053946971893310547,
54.079999999999998,-0.057865582406520844,
54.100000000000001,-0.054596066474914551,
54.119999999999997,-0.049066744744777679,
54.140000000000001,-0.048081081360578537,
54.159999999999997,-0.032887458801269531,
54.18,-0.033849082887172699,
54.200000000000003,-0.030411284416913986,
54.219999999999999,-0.021636486053466797,
54.240000000000002,-0.022021135315299034,
54.259999999999998,-0.017669796943664551,
54.280000000000001,-0.0056014461442828178,
54.299999999999997,0.014400283806025982,
54.32,0.024329027161002159,
54.340000000000003,-0.0056735677644610405,
54.359999999999999,-0.02108355425298214,
54.380000000000003,-0.10486483573913574,
54.399999999999999,-0.10214825719594955,
54.420000000000002,0.56021672487258911,
54.439999999999998,0.42681574821472168,
54.460000000000001,-0.1399640291929245,
54.479999999999997,-0.090224146842956543,
54.5,-0.019713243469595909,
54.520000000000003,-0.0059620542451739311,
54.539999999999999,0.0074766082689166069,
54.560000000000002,0.031685434281826019,
54.579999999999998,0.074525676667690277,
54.600000000000001,0.11671682447195053,
54.619999999999997,0.17960688471794128,
54.640000000000001,0.24514138698577881,
54.659999999999997,0.21480223536491394,
54.68,0.088084541261196136,
54.700000000000003,-0.011419257149100304,
54.719999999999999,-0.069308876991271973,
54.740000000000002,-0.079093381762504578,
54.759999999999998,-0.076569125056266785,
54.780000000000001,-0.078564487397670746,
54.799999999999997,-0.078276000916957855,
54.82,-0.086161300539970398,
54.840000000000003,-0.076280638575553894,
54.859999999999999,-0.047263704240322113,
54.880000000000003,-0.058178108185529709,
54.899999999999999,-0.05077362060546875,
54.920000000000002,-0.052865147590637207,
54.939999999999998,-0.044210553169250488,
54.960000000000001,-0.041710339486598969,
54.979999999999997,-0.043729744851589203,
55,-0.039690934121608734,84.1683349609375
55.020000000000003,-0.022477906197309494,
55.039999999999999,0.0052889189682900906,
55.060000000000002,0.0041349730454385281,
55.079999999999998,-0.040027499198913574,
55.100000000000001,-0.054451823234558105,
55.119999999999997,-0.15753766894340515,
55.140000000000001,0.035820405930280685,
55.159999999999997,0.66000902652740479,
55.18,0.23280858993530273,
55.200000000000003,-0.18874228000640869,
55.219999999999999,-0.087387368083000183,
55.240000000000002,-0.041493974626064301,
55.259999999999998,-0.020362338051199913,
55.280000000000001,0.00086545944213867188,
55.299999999999997,0.02416074275970459,
55.32,0.05522112175822258,
55.340000000000003,0.11928915977478027,
55.359999999999999,0.19807001948356628,
55.380000000000003,0.2237933874130249,
55.399999999999999,0.16063889861106873,
55.420000000000002,0.039546690881252289,
55.439999999999998,-0.048057042062282562,
55.460000000000001,-0.083468757569789886,
55.479999999999997,-0.099840365350246429,
55.5,-0.086545944213867188,
55.520000000000003,-0.077674984931945801,
55.539999999999999,-0.088060498237609863,
55.560000000000002,-0.091017484664916992,
55.579999999999998,-0.080151163041591644,
55.600000000000001,-0.069453120231628418,
55.619999999999997,-0.067938566207885742,
55.640000000000001,-0.065486431121826172,
55.659999999999997,-0.062938138842582703,
55.68,-0.062601566314697266,
55.700000000000003,-0.04735986515879631,
55.719999999999999,-0.047600269317626953,
55.740000000000002,-0.048561893403530121,
55.759999999999998,-0.038945674896240234,
55.780000000000001,-0.024473270401358604,
55.799999999999997,0.010577837936580181,
55.82,-0.010097026824951172,
55.840000000000003,-0.043585501611232758,
55.859999999999999,-0.069212719798088074,
55.880000000000003,-0.17169754207134247,
55.899999999999999,0.223697230219841,
55.920000000000002,0.68094831705093384,
55.939999999999998,0.061351459473371506,
55.960000000000001,-0.17741918563842773,
55.979999999999997,-0.064741179347038269,
56,-0.033127866685390472,83.04498291015625
56.020000000000003,-0.015698473900556564,
56.039999999999999,0.0044955811463296413,
56.060000000000002,0.034377973526716232,
56.079999999999998,0.075487300753593445,
56.100000000000001,0.14590203762054443,
56.119999999999997,0.21182119846343994,
56.140000000000001,0.22725522518157959,
56.159999999999997,0.16323527693748474,
56.18,0.023030837997794151,
56.200000000000003,-0.057625174522399902,
56.219999999999999,-0.086521908640861511,
56.240000000000002,-0.090777084231376648,
56.259999999999998,-0.077458620071411133,
56.280000000000001,-0.07563154399394989,
56.299999999999997,-0.082963906228542328,
56.32,-0.085223719477653503,
56.340000000000003,-0.067313514649868011,
56.359999999999999,-0.064116120338439941,
56.380000000000003,-0.063515111804008484,
56.399999999999999,-0.05185544490814209,
56.420000000000002,-0.047768555581569672,
56.439999999999998,-0.047143500298261642,
56.460000000000001,-0.044306717813014984,
56.479999999999997,-0.04137377068400383,
56.5,-0.027261972427368164,
56.520000000000003,-0.027141770347952843,
56.539999999999999,-0.022646188735961914,
56.560000000000002,0.018246769905090332,
56.579999999999998,0.013703107833862305,
56.600000000000001,-0.023151040077209473,
56.619999999999997,-0.038320623338222504,
56.640000000000001,-0.14522890746593475,
56.659999999999997,0.037286877632141113,
56.68,0.68025112152099609,
56.700000000000003,0.27653834223747253,
56.719999999999999,-0.17304381728172302,
56.740000000000002,-0.078227922320365906,
56.759999999999998,-0.024040540680289268,
56.780000000000001,-0.0088469190523028374,
56.799999999999997,0.0072121620178222656,
56.82,0.037503242492675781,
56.840000000000003,0.071881219744682312,
56.859999999999999,0.12580415606498718,
56.880000000000003,0.19823829829692841,
56.899999999999999,0.23425102233886719,
56.920000000000002,0.19028088450431824,
56.939999999999998,0.061135094612836838,
56.960000000000001,-0.043248932808637619,
56.979999999999997,-0.078300043940544128,
57,-0.089406773447990417,81.553398132324219
57.020000000000003,-0.084214016795158386,
57.039999999999999,-0.083300471305847168,
57.060000000000002,-0.08200228214263916,
57.079999999999998,-0.089959703385829926,
57.100000000000001,-0.080824300646781921,
57.119999999999997,-0.059933066368103027,
57.140000000000001,-0.063226625323295593,
57.159999999999997,-0.070198379456996918,
57.18,-0.071135960519313812,
57.200000000000003,-0.058346390724182129,
57.219999999999999,-0.058346390724182129,
57.240000000000002,-0.05197564885020256,
57.259999999999998,-0.055293243378400803,
57.280000000000001,-0.018559297546744347,
57.299999999999997,-0.018607378005981445,
57.32,-0.058466594666242599,
57.340000000000003,-0.087219081819057465,
57.359999999999999,-0.19585828483104706,
57.380000000000003,0.051831405609846115,
57.399999999999999,0.61974108219146729,
57.420000000000002,0.12534737586975098,
57.439999999999998,-0.21299919486045837,
57.460000000000001,-0.1145050972700119,
57.479999999999997,-0.073251530528068542,
57.5,-0.050340890884399414,
57.520000000000003,-0.038176380097866058,
57.539999999999999,-0.016275446861982346,
57.560000000000002,0.0061303377151489258,
57.579999999999998,0.082843706011772156,
57.600000000000001,0.16244193911552429,
57.619999999999997,0.15962919592857361,
57.640000000000001,0.096763178706169128,
57.659999999999997,-0.016251405701041222,
57.68,-0.10575433820486069,
57.700000000000003,-0.14340183138847351,
57.719999999999999,-0.14722427725791931,
57.740000000000002,-0.14200747013092041,
57.759999999999998,-0.15123903751373291,
57.780000000000001,-0.15393158793449402,
57.799999999999997,-0.13457894325256348,
57.82,-0.13397793471813202,
57.840000000000003,-0.13503572344779968,
57.859999999999999,-0.12472232431173325,
57.880000000000003,-0.11558692157268524,
57.899999999999999,-0.11082689464092255,
57.920000000000002,-0.12267887592315674,
57.939999999999998,-0.11650045961141586,
57.960000000000001,-0.10924021899700165,
57.979999999999997,-0.10291755199432373,
58,-0.08486311137676239,81.395347595214844
58.020000000000003,-0.057601135224103928,
58.039999999999999,-0.091666579246520996,
58.060000000000002,-0.12791971862316132,
58.079999999999998,-0.1592685878276825,
58.100000000000001,-0.2197786271572113,
58.119999999999997,0.33748111128807068,
58.140000000000001,0.48516213893890381,
58.159999999999997,-0.16157647967338562,
58.18,-0.21711012721061707,
58.200000000000003,-0.11919300258159637,
58.219999999999999,-0.094863973557949066,
58.240000000000002,-0.075535379350185394,
58.259999999999998,-0.060365796089172363,
58.280000000000001,-0.027790864929556847,
58.299999999999997,0.039138000458478928,
58.32,0.10277330875396729,
58.340000000000003,0.14813780784606934,
58.359999999999999,0.14063715934753418,
58.380000000000003,0.044258635491132736,
58.399999999999999,-0.064837336540222168,
58.420000000000002,-0.13075649738311768,
58.439999999999998,-0.15159964561462402,
58.460000000000001,-0.14816185832023621,
58.479999999999997,-0.14508466422557831,
58.5,-0.14128625392913818,
58.520000000000003,-0.14097373187541962,
58.539999999999999,-0.12741486728191376,
58.560000000000002,-0.12674173712730408,
58.579999999999998,-0.1237366646528244,
58.600000000000001,-0.11426468938589096,
58.619999999999997,-0.10270118713378906,
58.640000000000001,-0.094839930534362793,
58.659999999999997,-0.10803818702697754,
58.68,-0.10320603847503662,
58.700000000000003,-0.08274754136800766,
58.719999999999999,-0.083156228065490723,
58.740000000000002,-0.085632406175136566,
58.759999999999998,-0.037118595093488693,
58.780000000000001,-0.041998825967311859,
58.799999999999997,-0.093181133270263672,
58.82,-0.10325412452220917,
58.840000000000003,-0.21561960875988007,
58.859999999999999,0.097556516528129578,
58.880000000000003,0.64467114210128784,
58.899999999999999,0.081593595445156097,
58.920000000000002,-0.22201439738273621,
58.939999999999998,-0.10481675714254379,
58.960000000000001,-0.068755947053432465,
58.979999999999997,-0.062649652361869812,
59,-0.035099189728498459,81.395347595214844
59.020000000000003,-0.0011779865017160773,
59.039999999999999,0.037575364112854004,
59.060000000000002,0.10147511959075928,
59.079999999999998,0.17328421771526337,
59.100000000000001,0.20744583010673523,
59.119999999999997,0.130732461810112,
59.140000000000001,0.0100008649751544,
59.159999999999997,-0.074044868350028992,
59.18,-0.11844774335622787,
59.200000000000003,-0.11388003826141357,
59.219999999999999,-0.10361473262310028,
59.240000000000002,-0.10330220311880112,
59.259999999999998,-0.11174043267965317,
59.280000000000001,-0.10690828412771225,
59.299999999999997,-0.092508003115653992,
59.32,-0.08024732768535614,
59.340000000000003,-0.088661514222621918,
59.359999999999999,-0.077146098017692566,
59.380000000000003,-0.064885422587394714,
59.399999999999999,-0.062529444694519043,
59.420000000000002,-0.065125823020935059,
59.439999999999998,-0.055245161056518555,
59.460000000000001,-0.056254863739013672,
59.479999999999997,-0.050653420388698578,
59.5,-0.041590135544538498,
59.520000000000003,-0.026757121086120605,
59.539999999999999,0.001033743261359632,
59.560000000000002,-0.011419257149100304,
59.579999999999998,-0.049908161163330078,
59.600000000000001,-0.067217350006103516,
59.619999999999997,-0.18261194229125977,
59.640000000000001,0.2138165682554245,
59.659999999999997,0.689747154712677,
59.68,0.064043998718261719,
59.700000000000003,-0.1800636500120163,
59.719999999999999,-0.075583457946777344,
59.740000000000002,-0.023439526557922363,
59.759999999999998,-0.0088469190523028374,
59.780000000000001,0.0081016626209020615,
59.799999999999997,0.035988688468933105,
59.82,0.079069338738918304,
59.840000000000003,0.14465193450450897,
59.859999999999999,0.22679845988750458,
59.880000000000003,0.24107854068279266,
59.899999999999999,0.16717791557312012,
59.920000000000002,0.032430689781904221,
59.939999999999998,-0.043970149010419846,
59.960000000000001,-0.073371730744838715,
59.979999999999997,-0.073924660682678223,
60,-0.072602435946464539,80.305923461914062
