Data Set 1:Time(s),Data Set 1:EKG(mV),Data Set 1:Heart Rate(bpm),Data Set 2:Time(s),Data Set 2:EKG(mV),Data Set 2:Heart Rate(bpm)
0,0.14025251567363739,88.560882568359375,0,0.049331188201904297,92.843330383300781
0.0025000000000000001,0.14520487189292908,,0.0025000000000000001,0.061255298554897308,
0.0050000000000000001,0.1482580155134201,,0.0050000000000000001,0.071160003542900085,
0.0074999999999999997,0.150686115026474,,0.0074999999999999997,0.077626906335353851,
0.01,0.15342673659324646,,0.01,0.079670354723930359,
0.012500000000000001,0.15698473155498505,,0.012500000000000001,0.077025890350341797,
0.014999999999999999,0.16660094261169434,,0.014999999999999999,0.059957109391689301,
0.017500000000000002,0.17191390693187714,,0.017500000000000002,0.036349296569824219,
0.02,0.17693838477134705,,0.02,0.02632439136505127,
0.022499999999999999,0.18499195575714111,,0.022499999999999999,0.019400715827941895,
0.025000000000000001,0.18809318542480469,,0.025000000000000001,0.016395648941397667,
0.0275,0.19092997908592224,,0.0275,0.022381743416190147,
0.029999999999999999,0.19398312270641327,,0.029999999999999999,0.030074715614318848,
0.032500000000000001,0.20189246535301208,,0.032500000000000001,0.039306282997131348,
0.035000000000000003,0.20686885714530945,,0.035000000000000003,0.048778258264064789,
0.037499999999999999,0.21208564937114716,,0.037499999999999999,0.06353914737701416,
0.040000000000000001,0.21694183349609375,,0.040000000000000001,0.067217350006103516,
0.042500000000000003,0.222399041056633,,0.042500000000000003,0.068010687828063965,
0.044999999999999998,0.22177398204803467,,0.044999999999999998,0.066063404083251953,
0.047500000000000001,0.21857659518718719,,0.047500000000000001,0.0561346635222435,
0.050000000000000003,0.2131674736738205,,0.050000000000000003,0.049643717706203461,
0.052499999999999998,0.1992720365524292,,0.052499999999999998,0.043104689568281174,
0.055,0.19333402812480927,,0.055,0.037214756011962891,
0.057500000000000002,0.18989622592926025,,0.057500000000000002,0.029257338494062424,
0.059999999999999998,0.18999239802360535,,0.059999999999999998,0.027646621689200401,
0.0625,0.20230114459991455,,0.0625,0.027646621689200401,
0.065000000000000002,0.21367232501506805,,0.065000000000000002,0.02906501293182373,
0.067500000000000004,0.22691866755485535,,0.067500000000000004,0.035003028810024261,
0.070000000000000007,0.24033328890800476,,0.070000000000000007,0.038801431655883789,
0.072499999999999995,0.26081582903862,,0.072499999999999995,0.042695999145507812,
0.074999999999999997,0.26533544063568115,,0.074999999999999997,0.046350162476301193,
0.077499999999999999,0.26545566320419312,,0.077499999999999999,0.05214393138885498,
0.080000000000000002,0.26175341010093689,,0.080000000000000002,0.054091215133666992,
0.082500000000000004,0.24843494594097137,,0.082500000000000004,0.055413447320461273,
0.085000000000000006,0.24261713027954102,,0.085000000000000006,0.056182742118835449,
0.087499999999999994,0.23990055918693542,,0.087499999999999994,0.056663554161787033,
0.089999999999999997,0.24165551364421844,,0.089999999999999997,0.05659143254160881,
0.092499999999999999,0.26021480560302734,,0.092499999999999999,0.05647122859954834,
0.095000000000000001,0.27576905488967896,,0.095000000000000001,0.056326985359191895,
0.097500000000000003,0.29346287250518799,,0.097500000000000003,0.056182742118835449,
0.10000000000000001,0.31122884154319763,,0.10000000000000001,0.055870216339826584,
0.10249999999999999,0.33938032388687134,,0.10249999999999999,0.055725973099470139,
0.105,0.34712135791778564,,0.105,0.055629812180995941,
0.1075,0.35012644529342651,,0.1075,0.055750012397766113,
0.11,0.34906864166259766,,0.11,0.056110620498657227,
0.1125,0.34051021933555603,,0.1125,0.05675971508026123,
0.115,0.33668777346611023,,0.115,0.057721339166164398,
0.11749999999999999,0.33546170592308044,,0.11749999999999999,0.060558121651411057,
0.12,0.33791384100914001,,0.12,0.0622890405356884,
0.1225,0.35498261451721191,,0.1225,0.064092084765434265,
0.125,0.36830109357833862,,0.125,0.065871082246303558,
0.1275,0.38308602571487427,,0.1275,0.06890019029378891,
0.13,0.3977026641368866,,0.13,0.070030093193054199,
0.13250000000000001,0.42087775468826294,,0.13250000000000001,0.070799395442008972,
0.13500000000000001,0.42772930860519409,,0.13500000000000001,0.071256160736083984,
0.13750000000000001,0.43123921751976013,,0.13750000000000001,0.071208082139492035,
0.14000000000000001,0.43203255534172058,,0.14000000000000001,0.070799395442008972,
0.14249999999999999,0.42977273464202881,,0.14249999999999999,0.070222422480583191,
0.14499999999999999,0.42924386262893677,,0.14499999999999999,0.069549284875392914,
0.14749999999999999,0.43054205179214478,,0.14749999999999999,0.068299174308776855,
0.14999999999999999,0.43431639671325684,,0.14999999999999999,0.067938566207885742,
0.1525,0.44936579465866089,,0.1525,0.067962609231472015,
0.155,0.45955896377563477,,0.155,0.068443417549133301,
0.1575,0.47032913565635681,,0.1575,0.071256160736083984,
0.16,0.48054635524749756,,0.16,0.073708295822143555,
0.16250000000000001,0.49559575319290161,,0.16250000000000001,0.076833568513393402,
0.16500000000000001,0.499153733253479,,0.16500000000000001,0.080511771142482758,
0.16750000000000001,0.49975475668907166,,0.16750000000000001,0.088613435626029968,
0.17000000000000001,0.49761515855789185,,0.17000000000000001,0.092411838471889496,
0.17249999999999999,0.48701328039169312,,0.17249999999999999,0.095585189759731293,
0.17499999999999999,0.47972899675369263,,0.17499999999999999,0.097748838365077972,
0.17749999999999999,0.47184368968009949,,0.17749999999999999,0.097893081605434418,
0.17999999999999999,0.46374201774597168,,0.17999999999999999,0.095489025115966797,
0.1825,0.44751465320587158,,0.1825,0.091378092765808105,
0.185,0.43924471735954285,,0.185,0.085728570818901062,
0.1875,0.43056607246398926,,0.1875,0.070775352418422699,
0.19,0.42126238346099854,,0.19,0.062240958213806152,
0.1925,0.39996248483657837,,0.1925,0.053490202873945236,
0.19500000000000001,0.38784605264663696,,0.19500000000000001,0.044955812394618988,
0.19750000000000001,0.37491223216056824,,0.19750000000000001,0.029545824974775314,
0.20000000000000001,0.36137741804122925,,0.20000000000000001,0.023054879158735275,
0.20250000000000001,0.33377885818481445,,0.20250000000000001,0.017429392784833908,
0.20499999999999999,0.32041233777999878,,0.20499999999999999,0.012621283531188965,
0.20749999999999999,0.30764681100845337,,0.20749999999999999,0.0049283108673989773,
0.20999999999999999,0.29569864273071289,,0.20999999999999999,0.0017790000420063734,
0.21249999999999999,0.27459105849266052,,0.21249999999999999,-0.0010577838402241468,
0.215,0.26540756225585938,,0.215,-0.0035820405464619398,
0.2175,0.25701743364334106,,0.2175,-0.0075006484985351562,
0.22,0.24937252700328827,,0.22,-0.0085584325715899467,
0.2225,0.23571750521659851,,0.2225,-0.0087747974321246147,
0.22500000000000001,0.22951504588127136,,0.22500000000000001,-0.0080054998397827148,
0.22750000000000001,0.22367319464683533,,0.22750000000000001,-0.0034377973061054945,
0.23000000000000001,0.21809577941894531,,0.23000000000000001,-4.8081081331474707e-05,
0.23250000000000001,0.20771026611328125,,0.23250000000000001,0.0034377973061054945,
0.23499999999999999,0.2029021680355072,,0.23499999999999999,0.0062745809555053711,
0.23749999999999999,0.19835850596427917,,0.23749999999999999,0.0063707432709634304,
0.23999999999999999,0.19412736594676971,,0.23999999999999999,0.0017068784218281507,
0.24249999999999999,0.18672287464141846,,0.24249999999999999,-0.0071160001680254936,
0.245,0.18362164497375488,,0.245,-0.020530622452497482,
0.2475,0.18092910945415497,,0.2475,-0.060365796089172363,
0.25,0.17866930365562439,,0.25,-0.085007354617118835,
0.2525,0.17518341541290283,,0.2525,-0.11061052978038788,
0.255,0.17386119067668915,,0.255,-0.13481935858726501,
0.25750000000000001,0.17268320918083191,,0.25750000000000001,-0.16768276691436768,
0.26000000000000001,0.17162542045116425,,0.26000000000000001,-0.17020702362060547,
0.26250000000000001,0.16941368579864502,,0.26250000000000001,-0.15948495268821716,
0.26500000000000001,0.1682116687297821,,0.26500000000000001,-0.1330643892288208,
0.26750000000000002,0.1669134795665741,,0.26750000000000002,-0.027141770347952843,
0.27000000000000002,0.16549508273601532,,0.27000000000000002,0.052648782730102539,
0.27250000000000002,0.16253809630870819,,0.27250000000000002,0.14837822318077087,
0.27500000000000002,0.16107162833213806,,0.27500000000000002,0.25677701830863953,
0.27750000000000002,0.15962919592857361,,0.27750000000000002,0.49158096313476562,
0.28000000000000003,0.15828292071819305,,0.28000000000000003,0.60534083843231201,
0.28249999999999997,0.15575866401195526,,0.28249999999999997,0.70724868774414062,
0.28499999999999998,0.15453259646892548,,0.28499999999999998,0.79028469324111938,
0.28749999999999998,0.15328249335289001,,0.28749999999999998,0.87625366449356079,
0.28999999999999998,0.15191218256950378,,0.28999999999999998,0.87161386013031006,
0.29249999999999998,0.14864265918731689,,0.29249999999999998,0.83379805088043213,
0.29499999999999998,0.14662325382232666,,0.29499999999999998,0.76489788293838501,
0.29749999999999999,0.14431536197662354,,0.29749999999999999,0.55358153581619263,
0.29999999999999999,0.14174303412437439,,0.29999999999999999,0.42556565999984741,
0.30249999999999999,0.13602137565612793,,0.30249999999999999,0.29387158155441284,
0.30499999999999999,0.13304035365581512,,0.30499999999999999,0.1669134795665741,
0.3075,0.13010740280151367,,0.3075,-0.044715404510498047,
0.31,0.12734274566173553,,0.31,-0.11984209716320038,
0.3125,0.12270291894674301,,0.3125,-0.17181774973869324,
0.315,0.12087583541870117,,0.315,-0.20136356353759766,
0.3175,0.11943340301513672,,0.3175,-0.20487348735332489,
0.32000000000000001,0.11825542151927948,,0.32000000000000001,-0.18734793365001678,
0.32250000000000001,0.11650045961141586,,0.32250000000000001,-0.16325931251049042,
0.32500000000000001,0.11568307876586914,,0.32500000000000001,-0.13686279952526093,
0.32750000000000001,0.11479358375072479,,0.32750000000000001,-0.089743338525295258,
0.33000000000000002,0.11373579502105713,,0.33000000000000002,-0.072602435946464539,
0.33250000000000002,0.11104325950145721,,0.33250000000000002,-0.060341756790876389,
0.33500000000000002,0.10943254083395004,,0.33500000000000002,-0.052408378571271896,
0.33750000000000002,0.10767757892608643,,0.33750000000000002,-0.045124094933271408,
0.34000000000000002,0.10592262446880341,,0.34000000000000002,-0.043345093727111816,
0.34250000000000003,0.10255694389343262,,0.34250000000000003,-0.041469931602478027,
0.34499999999999997,0.10106643289327621,,0.34499999999999997,-0.038873553276062012,
0.34749999999999998,0.099744200706481934,,0.34749999999999998,-0.030868053436279297,
0.34999999999999998,0.098614297807216644,,0.34999999999999998,-0.025771459564566612,
0.35249999999999998,0.096739135682582855,,0.35249999999999998,-0.020410418510437012,
0.35499999999999998,0.095945797860622406,,0.35499999999999998,-0.015193621627986431,
0.35749999999999998,0.09517650306224823,,0.35749999999999998,-0.0062986216507852077,
0.35999999999999999,0.094455286860466003,,0.35999999999999999,-0.0028848648071289062,
0.36249999999999999,0.093036890029907227,,0.36249999999999999,-0.00014424324035644531,
0.36499999999999999,0.092363759875297546,,0.36499999999999999,0.002067486522719264,
0.36749999999999999,0.091714665293693542,,0.36749999999999999,0.0056495270691812038,
0.37,0.091089606285095215,,0.37,0.0073323650285601616,
0.3725,0.090007781982421875,,0.3725,0.0091113653033971786,
0.375,0.089502930641174316,,0.375,0.011034607887268066,
0.3775,0.089022122323513031,,0.3775,0.015289783477783203,
0.38,0.088541314005851746,,0.38,0.017549594864249229,
0.38250000000000001,0.087531611323356628,,0.38250000000000001,0.019761323928833008,
0.38500000000000001,0.08702675998210907,,0.38500000000000001,0.021900933235883713,
0.38750000000000001,0.086497865617275238,,0.38750000000000001,0.025771459564566612,
0.39000000000000001,0.085968971252441406,,0.39000000000000001,0.027502378448843956,
0.39250000000000002,0.085127554833889008,,0.39250000000000002,0.029113095253705978,
0.39500000000000002,0.084839068353176117,,0.39500000000000002,0.030675729736685753,
0.39750000000000002,0.084694825112819672,,0.39750000000000002,0.033993326127529144,
0.40000000000000002,0.084622703492641449,,0.40000000000000002,0.03584444522857666,
0.40250000000000002,0.084766946732997894,,0.40250000000000002,0.037935972213745117,
0.40500000000000003,0.084887146949768066,,0.40500000000000003,0.040267907083034515,
0.40749999999999997,0.084935232996940613,,0.40749999999999997,0.045604906976222992,
0.40999999999999998,0.08486311137676239,,0.40999999999999998,0.048537850379943848,
0.41249999999999998,0.08411785215139389,,0.41249999999999998,0.051566958427429199,
0.41499999999999998,0.083372592926025391,,0.41499999999999998,0.054596066474914551,
0.41749999999999998,0.08241097629070282,,0.41749999999999998,0.060461960732936859,
0.41999999999999998,0.081232987344264984,,0.41999999999999998,0.06320258229970932,
0.42249999999999999,0.078444287180900574,,0.42249999999999999,0.065823003649711609,
0.42499999999999999,0.077001854777336121,,0.42499999999999999,0.068347260355949402,
0.42749999999999999,0.075655579566955566,,0.42749999999999999,0.073323652148246765,
0.42999999999999999,0.074453555047512054,,0.42999999999999999,0.075944066047668457,
0.4325,0.072842836380004883,,0.4325,0.078780852258205414,
0.435,0.07248222827911377,,0.435,0.081882081925868988,
0.4375,0.07243414968252182,,0.4375,0.088998079299926758,
0.44,0.072650514543056488,,0.44,0.093036890029907227,
0.4425,0.073588095605373383,,0.4425,0.097388230264186859,
0.44500000000000001,0.074165068566799164,,0.44500000000000001,0.10195593535900116,
0.44750000000000001,0.074669919908046722,,0.44750000000000001,0.111620232462883,
0.45000000000000001,0.075078606605529785,,0.45000000000000001,0.11662065982818604,
0.45250000000000001,0.075439214706420898,,0.45250000000000001,0.12171725928783417,
0.45500000000000002,0.075415179133415222,,0.45500000000000002,0.12688598036766052,
0.45750000000000002,0.075391136109828949,,0.45750000000000002,0.13751189410686493,
0.46000000000000002,0.075439214706420898,,0.46000000000000002,0.1430412232875824,
0.46250000000000002,0.076280638575553894,,0.46250000000000002,0.14873883128166199,
0.46500000000000002,0.077314376831054688,,0.46500000000000002,0.1546047180891037,
0.46750000000000003,0.078828930854797363,,0.46750000000000003,0.16676923632621765,
0.46999999999999997,0.080872379243373871,,0.46999999999999997,0.17292360961437225,
0.47249999999999998,0.086137257516384125,,0.47249999999999998,0.17900586128234863,
0.47499999999999998,0.08907020092010498,,0.47499999999999998,0.18491983413696289,
0.47749999999999998,0.091906987130641937,,0.47749999999999998,0.19573807716369629,
0.47999999999999998,0.09443124383687973,,0.47999999999999998,0.20049810409545898,
0.48249999999999998,0.097532473504543304,,0.48249999999999998,0.20475327968597412,
0.48499999999999999,0.097796916961669922,,0.48499999999999999,0.20847956836223602,
0.48749999999999999,0.097123786807060242,,0.48749999999999999,0.2144656628370285,
0.48999999999999999,0.095537111163139343,,0.48999999999999999,0.2167975902557373,
0.49249999999999999,0.090344354510307312,,0.49249999999999999,0.21869680285453796,
0.495,0.087267160415649414,,0.495,0.22021135687828064,
0.4975,0.084334217011928558,,0.4975,0.22189418971538544,
0.5,0.081882081925868988,,0.5,0.22194227576255798,
0.50249999999999995,0.079886719584465027,,0.50249999999999995,0.22129318118095398,
0.505,0.080848336219787598,,0.505,0.21980266273021698,
0.50749999999999995,0.083252392709255219,,0.50749999999999995,0.2139127254486084,
0.51000000000000001,0.087122917175292969,,0.51000000000000001,0.20927290618419647,
0.51249999999999996,0.098470054566860199,,0.51249999999999996,0.20340701937675476,
0.51500000000000001,0.10529756546020508,,0.51500000000000001,0.19631505012512207,
0.51749999999999996,0.11234144866466522,,0.51749999999999996,0.17854909598827362,
0.52000000000000002,0.11912088096141815,,0.52000000000000002,0.16806742548942566,
0.52249999999999996,0.12991508841514587,,0.52249999999999996,0.15672028064727783,
0.52500000000000002,0.13316056132316589,,0.52500000000000002,0.14470002055168152,
0.52749999999999997,0.13460299372673035,,0.52749999999999997,0.1193612813949585,
0.53000000000000003,0.13414621353149414,,0.53000000000000003,0.10642747581005096,
0.53249999999999997,0.12777547538280487,,0.53249999999999997,0.093589827418327332,
0.53500000000000003,0.12231826782226562,,0.53500000000000003,0.080968543887138367,
0.53749999999999998,0.11577924340963364,,0.53749999999999998,0.056952040642499924,
0.54000000000000004,0.1085430383682251,,0.54000000000000004,0.045725107192993164,
0.54249999999999998,0.093613862991333008,,0.54249999999999998,0.035147272050380707,
0.54500000000000004,0.086594030261039734,,0.54500000000000004,0.025218527764081955,
0.54749999999999999,0.080151163041591644,,0.54749999999999999,0.0074285268783569336,
0.55000000000000004,0.074453555047512054,,0.55000000000000004,-0.00040868920041248202,
0.55249999999999999,0.065246030688285828,,0.55249999999999999,-0.0075727701187133789,
0.55500000000000005,0.061615906655788422,,0.55500000000000005,-0.014039675705134869,
0.5575,0.058466594666242599,,0.5575,-0.025122364982962608,
0.56000000000000005,0.055629812180995941,,0.56000000000000005,-0.029786229133605957,
0.5625,0.050533216446638107,,0.5625,-0.033969283103942871,
0.56499999999999995,0.048177242279052734,,0.56499999999999995,-0.037719607353210449,
0.5675,0.046013593673706055,,0.5675,-0.044138431549072266,
0.56999999999999995,0.044138431549072266,,0.56999999999999995,-0.046951174736022949,
0.57250000000000001,0.042167108505964279,,0.57250000000000001,-0.049571596086025238,
0.57499999999999996,0.042479634284973145,,0.57499999999999996,-0.051999688148498535,
0.57750000000000001,0.043849945068359375,,0.57750000000000001,-0.056375067681074142,
0.57999999999999996,0.046254001557826996,,0.57999999999999996,-0.058298312127590179,
0.58250000000000002,0.053177677094936371,,0.58250000000000002,-0.059981148689985275,
0.58499999999999996,0.05659143254160881,,0.58499999999999996,-0.06137549877166748,
0.58750000000000002,0.058851242065429688,,0.58750000000000002,-0.063322782516479492,
0.58999999999999997,0.058995485305786133,,0.58999999999999997,-0.063827633857727051,
0.59250000000000003,0.048802297562360764,,0.59250000000000003,-0.064068041741847992,
0.59499999999999997,0.036854147911071777,,0.59499999999999997,-0.064116120338439941,
0.59750000000000003,0.01983344554901123,,0.59750000000000003,-0.063971877098083496,
0.59999999999999998,-0.0019713244400918484,,0.59999999999999998,-0.063995920121669769,
0.60250000000000004,-0.055918298661708832,,0.60250000000000004,-0.064164206385612488,
0.60499999999999998,-0.084526538848876953,,0.60499999999999998,-0.064596936106681824,
0.60750000000000004,-0.1108749732375145,,0.60750000000000004,-0.066231690347194672,
0.60999999999999999,-0.13203065097332001,,0.60999999999999999,-0.067385636270046234,
0.61250000000000004,-0.14580588042736053,,0.61250000000000004,-0.068683825433254242,
0.61499999999999999,-0.13227105140686035,,0.61499999999999999,-0.070030093193054199,
0.61750000000000005,-0.10159532725811005,,0.61750000000000005,-0.07248222827911377,
0.62,-0.052071809768676758,,0.62,-0.073419809341430664,
0.62250000000000005,0.10551393032073975,,0.62250000000000005,-0.074092946946620941,
0.625,0.21119615435600281,,0.625,-0.074453555047512054,
0.62749999999999995,0.3307497501373291,,0.62749999999999995,-0.074357390403747559,
0.63,0.45924645662307739,,0.63,-0.074020825326442719,
0.63249999999999995,0.71691298484802246,,0.63249999999999995,-0.073540017008781433,
0.63500000000000001,0.83091318607330322,,0.63500000000000001,-0.072963044047355652,
0.63749999999999996,0.92462325096130371,,0.63749999999999996,-0.071833133697509766,
0.64000000000000001,0.991119384765625,,0.64000000000000001,-0.071280203759670258,
0.64249999999999996,1.0226845741271973,,0.64249999999999996,-0.07072727382183075,
0.64500000000000002,0.98376297950744629,,0.64500000000000002,-0.070198379456996918,
0.64749999999999996,0.91024696826934814,,0.64749999999999996,-0.069068476557731628,
0.65000000000000002,0.80694478750228882,,0.65000000000000002,-0.068419381976127625,
0.65249999999999997,0.54098427295684814,,0.65249999999999997,-0.067722201347351074,
0.65500000000000003,0.3965727686882019,,0.65500000000000003,-0.066976949572563171,
0.65749999999999997,0.25699338316917419,,0.65749999999999997,-0.065438352525234222,
0.66000000000000003,0.13054013252258301,,0.66000000000000003,-0.064669057726860046,
0.66249999999999998,-0.059812866151332855,,0.66249999999999998,-0.063923798501491547,
0.66500000000000004,-0.11803905665874481,,0.66500000000000004,-0.063178539276123047,
0.66749999999999998,-0.15193621814250946,,0.66749999999999998,-0.061736106872558594,
0.67000000000000004,-0.16434113681316376,,0.67000000000000004,-0.060966812074184418,
0.67249999999999999,-0.14251232147216797,,0.67249999999999999,-0.060149431228637695,
0.67500000000000004,-0.1183275431394577,,0.67500000000000004,-0.059259932488203049,
0.67749999999999999,-0.091546379029750824,,0.67749999999999999,-0.057312648743391037,
0.68000000000000005,-0.065750882029533386,,0.68000000000000005,-0.056254863739013672,
0.6825,-0.025747418403625488,,0.6825,-0.055173039436340332,
0.68500000000000005,-0.012981891632080078,,0.68500000000000005,-0.05413929745554924,
0.6875,-0.004519621841609478,,0.6875,-0.05214393138885498,
0.68999999999999995,0.00069717568112537265,,0.68999999999999995,-0.051230393350124359,
0.6925,0.0062265000306069851,,0.6925,-0.050388973206281662,
0.69499999999999995,0.0085343923419713974,,0.69499999999999995,-0.049571596086025238,
0.69750000000000001,0.01139521598815918,,0.69750000000000001,-0.04798492044210434,
0.69999999999999996,0.015001296997070312,,0.69999999999999996,-0.047167539596557617,
0.70250000000000001,0.023824175819754601,,0.70250000000000001,-0.046374201774597168,
0.70499999999999996,0.028464000672101974,,0.70499999999999996,-0.045580863952636719,
0.70750000000000002,0.032791297882795334,,0.70750000000000002,-0.044090352952480316,
0.70999999999999996,0.036565661430358887,,0.70999999999999996,-0.043513379991054535,
0.71250000000000002,0.042167108505964279,,0.71250000000000002,-0.043032567948102951,
0.71499999999999997,0.044090352952480316,,0.71499999999999997,-0.042720042169094086,
0.71750000000000003,0.045628946274518967,,0.71750000000000003,-0.042527716606855392,
0.71999999999999997,0.046975217759609222,,0.71999999999999997,-0.04257579892873764,
0.72250000000000003,0.049812000244855881,,0.72250000000000003,-0.042671959847211838,
0.72499999999999998,0.05151887983083725,,0.72499999999999998,-0.042720042169094086,
0.72750000000000004,0.053514242172241211,,0.72750000000000004,-0.042599838227033615,
0.72999999999999998,0.055750012397766113,,0.72999999999999998,-0.042311351746320724,
0.73250000000000004,0.060822568833827972,,0.73250000000000004,-0.041926704347133636,
0.73499999999999999,0.063515111804008484,,0.73499999999999999,-0.041397809982299805,
0.73750000000000004,0.066255733370780945,,0.73750000000000004,-0.040219824761152267,
0.73999999999999999,0.068972311913967133,,0.73999999999999999,-0.039690934121608734,
0.74250000000000005,0.074141025543212891,,0.74250000000000005,-0.039258204400539398,
0.745,0.076545082032680511,,0.745,-0.038969717919826508,
0.74750000000000005,0.078804895281791687,,0.74750000000000005,-0.038873553276062012,
0.75,0.080896422266960144,,0.75,-0.039017796516418457,
0.75249999999999995,0.084766946732997894,,0.75249999999999995,-0.039234161376953125,
0.755,0.086594030261039734,,0.755,-0.039474569261074066,
0.75749999999999995,0.08844514936208725,,0.75749999999999995,-0.039739012718200684,
0.76000000000000001,0.090368390083312988,,0.76000000000000001,-0.039666891098022461,
0.76249999999999996,0.094791851937770844,,0.76249999999999996,-0.03937840461730957,
0.76500000000000001,0.097388230264186859,,0.76500000000000001,-0.038897596299648285,
0.76749999999999996,0.10027309507131577,,0.76749999999999996,-0.037190716713666916,
0.77000000000000002,0.10347048938274384,,0.77000000000000002,-0.035964649170637131,
0.77249999999999996,0.11056244373321533,,0.77249999999999996,-0.034498177468776703,
0.77500000000000002,0.11431276798248291,,0.77500000000000002,-0.032815337181091309,
0.77749999999999997,0.11806309223175049,,0.77749999999999997,-0.028848648071289062,
0.78000000000000003,0.12174129486083984,,0.78000000000000003,-0.026660960167646408,
0.78249999999999997,0.12871305644512177,,0.78249999999999997,-0.024401148781180382,
0.78500000000000003,0.13193449378013611,,0.78500000000000003,-0.022165378555655479,
0.78749999999999998,0.13505975902080536,,0.78749999999999998,-0.018198689445853233,
0.79000000000000004,0.13813695311546326,,0.79000000000000004,-0.016708176583051682,
0.79249999999999998,0.1446278989315033,,0.79249999999999998,-0.015698473900556564,
0.79500000000000004,0.14828205108642578,,0.79500000000000004,-0.015265743248164654,
0.79749999999999999,0.15229682624340057,,0.79749999999999999,-0.016155242919921875,
0.80000000000000004,0.15676836669445038,,0.80000000000000004,-0.017357271164655685,
0.80249999999999999,0.16717791557312012,,0.80249999999999999,-0.018847784027457237,
0.80500000000000005,0.17304381728172302,,0.80500000000000005,-0.020386379212141037,
0.8075,0.17927031219005585,,0.8075,-0.022429823875427246,
0.81000000000000005,0.18578529357910156,,0.81000000000000005,-0.022285580635070801,
0.8125,0.1991758793592453,,0.8125,-0.021059513092041016,
0.81499999999999995,0.20588319003582001,,0.81499999999999995,-0.018535256385803223,
0.8175,0.21251837909221649,,0.8175,-0.0097604598850011826,
0.81999999999999995,0.21900932490825653,,0.81999999999999995,-0.0038224458694458008,
0.82250000000000001,0.23139020800590515,,0.82250000000000001,0.0026925406418740749,
0.82499999999999996,0.23728013038635254,,0.82499999999999996,0.0093277301639318466,
0.82750000000000001,0.24292966723442078,,0.82750000000000001,0.020987391471862793,
0.82999999999999996,0.24831473827362061,,0.82999999999999996,0.025098323822021484,
0.83250000000000002,0.25836369395256042,,0.83250000000000002,0.027598541229963303,
0.83499999999999996,0.26297947764396667,,0.83499999999999996,0.028271675109863281,
0.83750000000000002,0.26728272438049316,,0.83750000000000002,0.024136703461408615,
0.83999999999999997,0.27124941349029541,,0.83999999999999997,0.01966516301035881,
0.84250000000000003,0.27805289626121521,,0.84250000000000003,0.013991594314575195,
0.84499999999999997,0.28074544668197632,,0.84499999999999997,0.0075246891938149929,
0.84750000000000003,0.282909095287323,,0.84750000000000003,-0.0062745809555053711,
0.84999999999999998,0.28442364931106567,,0.84999999999999998,-0.012885729782283306,
0.85250000000000004,0.28519293665885925,,0.85250000000000004,-0.01891990564763546,
0.85499999999999998,0.28423130512237549,,0.85499999999999998,-0.024256905540823936,
0.85750000000000004,0.28228402137756348,,0.85750000000000004,-0.032550893723964691,
0.85999999999999999,0.279278963804245,,0.85999999999999999,-0.035628080368041992,
0.86250000000000004,0.26997527480125427,,0.86250000000000004,-0.038152337074279785,
0.86499999999999999,0.26367664337158203,,0.86499999999999999,-0.040267907083034515,
0.86750000000000005,0.25632023811340332,,0.86750000000000005,-0.0438259057700634,
0.87,0.24797818064689636,,0.87,-0.045460663735866547,
0.87250000000000005,0.22857746481895447,,0.87250000000000005,-0.046999257057905197,
0.875,0.2177351713180542,,0.875,-0.048393607139587402,
0.87749999999999995,0.2062678337097168,,0.87749999999999995,-0.049956243485212326,
0.88,0.19427160918712616,,0.88,-0.049715839326381683,
0.88249999999999995,0.16931752860546112,,0.88249999999999995,-0.048537850379943848,
0.88500000000000001,0.15662412345409393,,0.88500000000000001,-0.046302080154418945,
0.88749999999999996,0.14400283992290497,,0.88749999999999996,-0.039186082780361176,
0.89000000000000001,0.13159792125225067,,0.89000000000000001,-0.035123229026794434,
0.89249999999999996,0.10803818702697754,,0.89249999999999996,-0.031613312661647797,
0.89500000000000002,0.097099743783473969,,0.89500000000000002,-0.029617946594953537,
0.89749999999999996,0.086834430694580078,,0.89749999999999996,-0.034065447747707367,
0.90000000000000002,0.077338419854640961,,0.90000000000000002,-0.042311351746320724,
0.90249999999999997,0.060582160949707031,,0.90249999999999997,-0.055293243378400803,
0.90500000000000003,0.053297877311706543,,0.90500000000000003,-0.073011122643947601,
0.90749999999999997,0.046710770577192307,,0.90749999999999997,-0.11972188949584961,
0.91000000000000003,0.040724676102399826,,0.91000000000000003,-0.14570972323417664,
0.91249999999999998,0.030507445335388184,,0.91249999999999998,-0.17049551010131836,
0.91500000000000004,0.026156108826398849,,0.91500000000000004,-0.19124250113964081,
0.91749999999999998,0.022309621796011925,,0.91749999999999998,-0.2084074467420578,
0.92000000000000004,0.018943946808576584,,0.92000000000000004,-0.19879123568534851,
0.92249999999999999,0.01353482436388731,,0.92249999999999999,-0.17359673976898193,
0.92500000000000004,0.011467337608337402,,0.92500000000000004,-0.13102094829082489,
0.92749999999999999,0.0097845001146197319,,0.92749999999999999,0.0084382295608520508,
0.93000000000000005,0.0083901491016149521,,0.93000000000000005,0.10337432473897934,
0.9325,0.0063226623460650444,,0.9325,0.2114846408367157,
0.93500000000000005,0.0055052838288247585,,0.93500000000000005,0.32834571599960327,
0.9375,0.0047600269317626953,,0.9375,0.56464016437530518,
0.93999999999999995,0.0040388107299804688,,0.93999999999999995,0.67032241821289062,
0.9425,0.0026925406418740749,,0.9425,0.7581905722618103,
0.94499999999999995,0.002043446060270071,,0.94499999999999995,0.82182586193084717,
0.94750000000000001,0.0014424324035644531,,0.94750000000000001,0.85791075229644775,
0.94999999999999996,0.00091354054166004062,,0.94999999999999996,0.82620126008987427,
0.95250000000000001,9.6162162662949413e-05,,0.95250000000000001,0.76261401176452637,
0.95499999999999996,-0.00016828379011712968,,0.95499999999999996,0.67121189832687378,
0.95750000000000002,-0.00040868920041248202,,0.95750000000000002,0.43131133913993835,
0.95999999999999996,-0.00060101354029029608,,0.95999999999999996,0.29918453097343445,
0.96250000000000002,-0.0010818243026733398,,0.96250000000000002,0.17035126686096191,
0.96499999999999997,-0.0014183919411152601,,0.96499999999999997,0.052552621811628342,
0.96750000000000003,-0.0017790000420063734,,0.96750000000000003,-0.12739083170890808,
0.96999999999999997,-0.0022117297630757093,,0.96999999999999997,-0.18362164497375488,
0.97250000000000003,-0.0031012296676635742,,0.97250000000000003,-0.21713416278362274,
0.97499999999999998,-0.0034618377685546875,,0.97499999999999998,-0.23028433322906494,
0.97750000000000004,-0.0037022433243691921,,0.97750000000000004,-0.21114806830883026,
0.97999999999999998,-0.0038224458694458008,,0.97999999999999998,-0.18814127147197723,
0.98250000000000004,-0.0035339593887329102,,0.98250000000000004,-0.16205728054046631,
0.98499999999999999,-0.0031733512878417969,,0.98499999999999999,-0.13640603423118591,
0.98750000000000004,-0.0026925406418740749,,0.98750000000000004,-0.09517650306224823,
0.98999999999999999,-0.0021396081428974867,,0.98999999999999999,-0.08132915198802948,
0.99250000000000005,-0.00091354054166004062,,0.99250000000000005,-0.07168889045715332,
0.995,-0.00033656758023425937,,0.995,-0.065366230905056,
0.99750000000000005,0.00021636486053466797,,0.99750000000000005,-0.058250229805707932,
1,0.00069717568112537265,89.719627380371094,1,-0.055509608238935471,92.465751647949219
1.0024999999999999,0.0013943513622507453,,1.0024999999999999,-0.052456460893154144,
1.0049999999999999,0.0015866756439208984,,1.0049999999999999,-0.048874419182538986,
1.0075000000000001,0.0016828378429636359,,1.0075000000000001,-0.04029194638133049,
1.01,0.0016587972640991211,,1.01,-0.035820405930280685,
1.0125,0.0014183919411152601,,1.0125,-0.031565230339765549,
1.0149999999999999,0.0012501081218943,,1.0149999999999999,-0.027790864929556847,
1.0175000000000001,0.0011539459228515625,,1.0175000000000001,-0.021924972534179688,
1.02,0.0011539459228515625,,1.02,-0.019785365089774132,
1.0225,0.0016587972640991211,,1.0225,-0.018006365746259689,
1.0249999999999999,0.0021876893006265163,,1.0249999999999999,-0.016443729400634766,
1.0275000000000001,0.0028608243446797132,,1.0275000000000001,-0.013462702743709087,
1.03,0.0036541621666401625,,1.03,-0.011876027099788189,
1.0325,0.0051446757279336452,,1.0325,-0.010193189606070518,
1.0349999999999999,0.0057216486893594265,,1.0349999999999999,-0.0084141893312335014,
1.0375000000000001,0.0060822567902505398,,1.0375000000000001,-0.0047119460068643093,
1.04,0.0062265000306069851,,1.04,-0.0028848648071289062,
1.0425,0.0059620542451739311,,1.0425,-0.0010577838402241468,
1.0449999999999999,0.0056976079940795898,,1.0449999999999999,0.00072121620178222656,
1.0475000000000001,0.0054812431335449219,,1.0475000000000001,0.00430325698107481,
1.05,0.0053369998931884766,,1.05,0.0061543784104287624,
1.0525,0.0056014461442828178,,1.0525,0.0081257028505206108,
1.0549999999999999,0.0060101351700723171,,1.0549999999999999,0.010193189606070518,
1.0575000000000001,0.0065630674362182617,,1.0575000000000001,0.014688770286738873,
1.0600000000000001,0.0071881217882037163,,1.0600000000000001,0.01709282398223877,
1.0625,0.0084622707217931747,,1.0625,0.019593041390180588,
1.0649999999999999,0.009039243683218956,,1.0649999999999999,0.022141337394714355,
1.0674999999999999,0.0095681352540850639,,1.0674999999999999,0.027261972427368164,
1.0700000000000001,0.010072986595332623,,1.0700000000000001,0.029810270294547081,
1.0725,0.011178851127624512,,1.0725,0.032382607460021973,
1.075,0.01185198687016964,,1.075,0.034978985786437988,
1.0774999999999999,0.012645324692130089,,1.0774999999999999,0.040364068001508713,
1.0800000000000001,0.013558864593505859,,1.0800000000000001,0.043248932808637619,
1.0825,0.015578269958496094,,1.0825,0.046278040856122971,
1.085,0.016515851020812988,,1.085,0.049475431442260742,
1.0874999999999999,0.017333230003714561,,1.0874999999999999,0.056447189301252365,
1.0900000000000001,0.017934244126081467,,1.0900000000000001,0.060197513550519943,
1.0925,0.018415054306387901,,1.0925,0.064092084765434265,
1.095,0.018318891525268555,,1.095,0.068130895495414734,
1.0974999999999999,0.018078487366437912,,1.0974999999999999,0.076521039009094238,
1.1000000000000001,0.017765959724783897,,1.1000000000000001,0.080896422266960144,
1.1025,0.017261108383536339,,1.1025,0.085416041314601898,
1.105,0.01721302792429924,,1.105,0.090055868029594421,
1.1074999999999999,0.01738131046295166,,1.1074999999999999,0.099912486970424652,
1.1100000000000001,0.017741918563842773,,1.1100000000000001,0.10512928664684296,
1.1125,0.018967986106872559,,1.1125,0.11053840816020966,
1.115,0.019689202308654785,,1.115,0.11611580848693848,
1.1174999999999999,0.020410418510437012,,1.1174999999999999,0.12763123214244843,
1.1200000000000001,0.021059513092041016,,1.1200000000000001,0.13349711894989014,
1.1225000000000001,0.021924972534179688,,1.1225000000000001,0.13936302065849304,
1.125,0.022093256935477257,,1.125,0.14518082141876221,
1.1274999999999999,0.022069215774536133,,1.1274999999999999,0.15657603740692139,
1.1299999999999999,0.021924972534179688,,1.1299999999999999,0.16210536658763885,
1.1325000000000001,0.02137204073369503,,1.1325000000000001,0.16751448810100555,
1.135,0.021107595413923264,,1.135,0.17273128032684326,
1.1375,0.020939311012625694,,1.1375,0.18261194229125977,
1.1399999999999999,0.020939311012625694,,1.1399999999999999,0.18720369040966034,
1.1425000000000001,0.021780729293823242,,1.1425000000000001,0.19150695204734802,
1.145,0.022718310356140137,,1.145,0.19547364115715027,
1.1475,0.024016499519348145,,1.1475,0.20227710902690887,
1.1499999999999999,0.02569933794438839,,1.1499999999999999,0.20504176616668701,
1.1525000000000001,0.030026635155081749,,1.1525000000000001,0.20732562243938446,
1.155,0.032550893723964691,,1.155,0.2091526985168457,
1.1575,0.035147272050380707,,1.1575,0.21119615435600281,
1.1599999999999999,0.037767689675092697,,1.1599999999999999,0.21131634712219238,
1.1625000000000001,0.042479634284973145,,1.1625000000000001,0.21076342463493347,
1.165,0.044354796409606934,,1.165,0.20944118499755859,
1.1675,0.045773189514875412,,1.1675,0.20415227115154266,
1.1699999999999999,0.046686731278896332,,1.1699999999999999,0.19996921718120575,
1.1725000000000001,0.046806931495666504,,1.1725000000000001,0.19465625286102295,
1.175,0.046013593673706055,,1.175,0.18814127147197723,
1.1775,0.04473944753408432,,1.1775,0.17152926325798035,
1.1799999999999999,0.043104689568281174,,1.1799999999999999,0.16148030757904053,
1.1825000000000001,0.039330326020717621,,1.1825000000000001,0.15044569969177246,
1.1850000000000001,0.037647485733032227,,1.1850000000000001,0.13859371840953827,
1.1875,0.036397378891706467,,1.1875,0.11318286508321762,
1.1899999999999999,0.035868488252162933,,1.1899999999999999,0.10012885183095932,
1.1924999999999999,0.037767689675092697,,1.1924999999999999,0.087146960198879242,
1.1950000000000001,0.040484271943569183,,1.1950000000000001,0.074477598071098328,
1.1975,0.044475000351667404,,1.1975,0.050749581307172775,
1.2,0.049643717706203461,,1.2,0.039931338280439377,
1.2024999999999999,0.062649652361869812,,1.2024999999999999,0.029930472373962402,
1.2050000000000001,0.069789692759513855,,1.2050000000000001,0.02074698731303215,
1.2075,0.076809525489807129,,1.2075,0.0047119460068643093,
1.21,0.083204314112663269,,1.21,-0.0022357702255249023,
1.2124999999999999,0.092411838471889496,,1.2124999999999999,-0.0085343923419713974,
1.2150000000000001,0.094575487077236176,,1.2150000000000001,-0.014280080795288086,
1.2175,0.094815894961357117,,1.2175,-0.024256905540823936,
1.22,0.093157097697257996,,1.22,-0.028584202751517296,
1.2224999999999999,0.084670782089233398,,1.2224999999999999,-0.032502811402082443,
1.2250000000000001,0.078396201133728027,,1.2250000000000001,-0.036036770790815353,
1.2275,0.071256160736083984,,1.2275,-0.041950743645429611,
1.23,0.063659355044364929,,1.23,-0.044330757111310959,
1.2324999999999999,0.048634015023708344,,1.2324999999999999,-0.046374201774597168,
1.2350000000000001,0.041830539703369141,,1.2350000000000001,-0.048081081360578537,
1.2375,0.035748284310102463,,1.2375,-0.050557255744934082,
1.24,0.030531486496329308,,1.24,-0.051398675888776779,
1.2424999999999999,0.022718310356140137,,1.2424999999999999,-0.052047770470380783,
1.2450000000000001,0.019977688789367676,,1.2450000000000001,-0.052528582513332367,
1.2475000000000001,0.01783808134496212,,1.2475000000000001,-0.053177677094936371,
1.25,0.016203325241804123,,1.25,-0.053394041955471039,
1.2524999999999999,0.014015635475516319,,1.2524999999999999,-0.053586363792419434,
1.2549999999999999,0.013438662514090538,,1.2549999999999999,-0.053730607032775879,
1.2575000000000001,0.01322229765355587,,1.2575000000000001,-0.053946971893310547,
1.26,0.01353482436388731,,1.26,-0.053995054215192795,
1.2625,0.016107162460684776,,1.2625,-0.05401909351348877,
1.2649999999999999,0.018511217087507248,,1.2649999999999999,-0.05397101491689682,
1.2675000000000001,0.021564364433288574,,1.2675000000000001,-0.053826771676540375,
1.27,0.025002162903547287,,1.27,-0.053706567734479904,
1.2725,0.030892094597220421,,1.2725,-0.053610406816005707,
1.2749999999999999,0.031829677522182465,,1.2749999999999999,-0.053538285195827484,
1.2775000000000001,0.030243000015616417,,1.2775000000000001,-0.053514242172241211,
1.28,0.02524256706237793,,1.28,-0.053586363792419434,
1.2825,0.0023559730034321547,,1.2825,-0.053682528436183929,
1.2849999999999999,-0.015986960381269455,,1.2849999999999999,-0.053778689354658127,
1.2875000000000001,-0.038464866578578949,,1.2875000000000001,-0.053995054215192795,
1.29,-0.063995920121669769,,1.29,-0.054043136537075043,
1.2925,-0.11707743257284164,,1.2925,-0.05401909351348877,
1.2949999999999999,-0.13977169990539551,,1.2949999999999999,-0.053922932595014572,
1.2975000000000001,-0.15599906444549561,,1.2975000000000001,-0.053538285195827484,
1.3,-0.16265830397605896,,1.3,-0.05322575569152832,
1.3025,-0.13537228107452393,,1.3025,-0.052865147590637207,
1.3049999999999999,-0.09659489244222641,,1.3049999999999999,-0.052408378571271896,
1.3075000000000001,-0.03908991813659668,,1.3075000000000001,-0.051374636590480804,
1.3100000000000001,0.037286877632141113,,1.3100000000000001,-0.05077362060546875,
1.3125,0.24023711681365967,,1.3125,-0.050148569047451019,
1.3149999999999999,0.35988688468933105,,1.3149999999999999,-0.04952351376414299,
1.3174999999999999,0.48463326692581177,,1.3174999999999999,-0.048345528542995453,
1.3200000000000001,0.60772085189819336,,1.3200000000000001,-0.047840677201747894,
1.3225,0.8188929557800293,,1.3225,-0.047383904457092285,
1.325,0.89236080646514893,,1.325,-0.047023296356201172,
1.3274999999999999,0.93628287315368652,,1.3274999999999999,-0.046470366418361664,
1.3300000000000001,0.94674050807952881,,1.3300000000000001,-0.046205919235944748,
1.3325,0.86368048191070557,,1.3325,-0.045917432755231857,
1.335,0.77501893043518066,,1.335,-0.045532785356044769,
1.3374999999999999,0.66224479675292969,,1.3374999999999999,-0.044402878731489182,
1.3400000000000001,0.53326725959777832,,1.3400000000000001,-0.043633580207824707,
1.3425,0.26233038306236267,,1.3425,-0.04274408146739006,
1.345,0.13770422339439392,,1.345,-0.041806500405073166,
1.3474999999999999,0.029834311455488205,,1.3474999999999999,-0.039883255958557129,
1.3500000000000001,-0.056567393243312836,,1.3500000000000001,-0.03904183954000473,
1.3525,-0.15792231261730194,,1.3525,-0.038344662636518478,
1.355,-0.17501513659954071,,1.355,-0.03783981129527092,
1.3574999999999999,-0.17410159111022949,,1.3574999999999999,-0.037310920655727386,
1.3600000000000001,-0.15982151031494141,,1.3600000000000001,-0.037286877632141113,
1.3625,-0.11085093021392822,,1.3625,-0.037334959954023361,
1.365,-0.084718868136405945,,1.365,-0.037431120872497559,
1.3674999999999999,-0.061591863632202148,,1.3674999999999999,-0.037575364112854004,
1.3700000000000001,-0.043152771890163422,,1.3700000000000001,-0.037527285516262054,
1.3725000000000001,-0.021468203514814377,,1.3725000000000001,-0.037431120872497559,
1.375,-0.016804337501525879,,1.375,-0.037262838333845139,
1.3774999999999999,-0.01461664866656065,,1.3774999999999999,-0.036830108612775803,
1.3799999999999999,-0.01353482436388731,,1.3799999999999999,-0.036637783050537109,
1.3825000000000001,-0.010409554466605186,,1.3825000000000001,-0.036445461213588715,
1.385,-0.007140040397644043,,1.385,-0.036301217973232269,
1.3875,-0.0025963783264160156,,1.3875,-0.036132931709289551,
1.3899999999999999,0.0030050675850361586,,1.3899999999999999,-0.036084853112697601,
1.3925000000000001,0.015506148338317871,,1.3925000000000001,-0.036012731492519379,
1.395,0.021396081894636154,,1.395,-0.035964649170637131,
1.3975,0.026540756225585938,,1.3975,-0.03584444522857666,
1.3999999999999999,0.030699770897626877,,1.3999999999999999,-0.035796366631984711,
1.4025000000000001,0.035916566848754883,,1.4025000000000001,-0.035748284310102463,
1.405,0.037214756011962891,,1.405,-0.035700201988220215,
1.4075,0.03796001523733139,,1.4075,-0.03550788015127182,
1.4099999999999999,0.038344662636518478,,1.4099999999999999,-0.035315554589033127,
1.4125000000000001,0.039017796516418457,,1.4125000000000001,-0.034954946488142014,
1.415,0.039642851799726486,,1.415,-0.034450095146894455,
1.4175,0.040604472160339355,,1.4175,-0.032791297882795334,
1.4199999999999999,0.041974782943725586,,1.4199999999999999,-0.031661391258239746,
1.4225000000000001,0.045893393456935883,,1.4225000000000001,-0.030339162796735764,
1.425,0.048417650163173676,,1.425,-0.02889673039317131,
1.4275,0.051206350326538086,,1.4275,-0.025867622345685959,
1.4299999999999999,0.054187379777431488,,1.4299999999999999,-0.024401148781180382,
1.4325000000000001,0.060389839112758636,,1.4325000000000001,-0.023030837997794151,
1.4350000000000001,0.063418947160243988,,1.4350000000000001,-0.021804770454764366,
1.4375,0.066231690347194672,,1.4375,-0.019881527870893478,
1.4399999999999999,0.068755947053432465,,1.4399999999999999,-0.019256472587585449,
1.4424999999999999,0.072818800806999207,,1.4424999999999999,-0.018847784027457237,
1.4450000000000001,0.074333354830741882,,1.4450000000000001,-0.018727581948041916,
1.4475,0.075583457946777344,,1.4475,-0.019184350967407227,
1.45,0.076665282249450684,,1.45,-0.019737284630537033,
1.4524999999999999,0.078804895281791687,,1.4524999999999999,-0.020362338051199913,
1.4550000000000001,0.080175206065177917,,1.4550000000000001,-0.020963352173566818,
1.4575,0.081882081925868988,,1.4575,-0.021203756332397461,
1.46,0.084021687507629395,,1.46,-0.020434459671378136,
1.4624999999999999,0.089695259928703308,,1.4624999999999999,-0.018751621246337891,
1.4650000000000001,0.093181133270263672,,1.4650000000000001,-0.01601099967956543,
1.4675,0.097003579139709473,,1.4675,-0.0071160001680254936,
1.47,0.10104238986968994,,1.47,-0.0011299054604023695,
1.4724999999999999,0.10943254083395004,,1.4724999999999999,0.0055774054490029812,
1.4750000000000001,0.11363963782787323,,1.4750000000000001,0.012597243301570415,
1.4775,0.11779864877462387,,1.4775,0.025771459564566612,
1.48,0.12190958112478256,,1.48,0.030988257378339767,
1.4824999999999999,0.13020357489585876,,1.4824999999999999,0.034738581627607346,
1.4850000000000001,0.13448278605937958,,1.4850000000000001,0.036733947694301605,
1.4875,0.13895432651042938,,1.4875,0.034954946488142014,
1.49,0.14364223182201385,,1.49,0.031324826180934906,
1.4924999999999999,0.15381138026714325,,1.4924999999999999,0.026180148124694824,
1.4950000000000001,0.15929262340068817,,1.4950000000000001,0.019905567169189453,
1.4975000000000001,0.16501426696777344,,1.4975000000000001,0.0055774054490029812,
1.5,0.17095229029655457,,1.5,-0.0016828378429636359,
1.5024999999999999,0.18328508734703064,,1.5024999999999999,-0.0085103511810302734,
1.5049999999999999,0.18960773944854736,,1.5049999999999999,-0.014712810516357422,
1.5075000000000001,0.19595444202423096,,1.5075000000000001,-0.024593472480773926,
1.51,0.20227710902690887,,1.51,-0.028271675109863281,
1.5125,0.21458587050437927,,1.5125,-0.03122866153717041,
1.5149999999999999,0.22042772173881531,,1.5149999999999999,-0.033632718026638031,
1.5175000000000001,0.22595703601837158,,1.5175000000000001,-0.037407081574201584,
1.52,0.23110172152519226,,1.52,-0.039065878838300705,
1.5225,0.24009287357330322,,1.5225,-0.040628515183925629,
1.5249999999999999,0.24386724829673767,,1.5249999999999999,-0.042070947587490082,
1.5275000000000001,0.24718484282493591,,1.5275000000000001,-0.044114392250776291,
1.53,0.25004565715789795,,1.53,-0.044258635491132736,
1.5325,0.2544691264629364,,1.5325,-0.043561458587646484,
1.5349999999999999,0.25603175163269043,,1.5349999999999999,-0.041854582726955414,
1.5375000000000001,0.25711357593536377,,1.5375000000000001,-0.035604041069746017,
1.54,0.25766652822494507,,1.54,-0.031709473580121994,
1.5425,0.25675296783447266,,1.5425,-0.028079351410269737,
1.5449999999999999,0.25504609942436218,,1.5449999999999999,-0.025555094704031944,
1.5475000000000001,0.25230547785758972,,1.5475000000000001,-0.027838945388793945,
1.55,0.24843494594097137,,1.55,-0.03447413444519043,
1.5525,0.23706376552581787,,1.5525,-0.045701067894697189,
1.5549999999999999,0.22951504588127136,,1.5549999999999999,-0.061639945954084396,
1.5575000000000001,0.2208123654127121,,1.5575000000000001,-0.10565817356109619,
1.5600000000000001,0.21107594668865204,,1.5600000000000001,-0.13114115595817566,
1.5625,0.18905481696128845,,1.5625,-0.15614330768585205,
1.5649999999999999,0.17717878520488739,,1.5649999999999999,-0.17799615859985352,
1.5674999999999999,0.16499023139476776,,1.5674999999999999,-0.19989709556102753,
1.5700000000000001,0.15265743434429169,,1.5700000000000001,-0.19371867179870605,
1.5725,0.12835244834423065,,1.5725,-0.17246684432029724,
1.575,0.11666874587535858,,1.575,-0.13412217795848846,
1.5774999999999999,0.10541777312755585,,1.5774999999999999,-0.0031012296676635742,
1.5800000000000001,0.094695687294006348,,1.5800000000000001,0.088036462664604187,
1.5825,0.075030528008937836,,1.5825,0.19292533397674561,
1.585,0.066135525703430176,,1.585,0.30731022357940674,
1.5874999999999999,0.057817500084638596,,1.5874999999999999,0.54136896133422852,
1.5900000000000001,0.050076447427272797,,1.5900000000000001,0.6474117636680603,
1.5925,0.036181014031171799,,1.5925,0.73669832944869995,
1.595,0.030002593994140625,,1.595,0.80268961191177368,
1.5974999999999999,0.024304986000061035,,1.5974999999999999,0.8456500768661499,
1.6000000000000001,0.019064148887991905,,1.6000000000000001,0.81793129444122314,
1.6025,0.010048946365714073,,1.6025,0.75831079483032227,
1.605,0.0062745809555053711,,1.605,0.67049068212509155,
1.6074999999999999,0.0029810271225869656,,1.6074999999999999,0.43559056520462036,
1.6100000000000001,0.00019232432532589883,,1.6100000000000001,0.30452153086662292,
1.6125,-0.0040628514252603054,,1.6125,0.17576038837432861,
1.615,-0.0056254863739013672,,1.615,0.057120323181152344,
1.6174999999999999,-0.0068515539169311523,,1.6174999999999999,-0.12628495693206787,
1.6200000000000001,-0.0078372163698077202,,1.6200000000000001,-0.1845351904630661,
1.6225000000000001,-0.0092075271531939507,,1.6225000000000001,-0.21989881992340088,
1.625,-0.0097123784944415092,,1.625,-0.23444335162639618,
1.6274999999999999,-0.010072986595332623,,1.6274999999999999,-0.21641294658184052,
1.6299999999999999,-0.010361473076045513,,1.6299999999999999,-0.19306957721710205,
1.6325000000000001,-0.010722081176936626,,1.6325000000000001,-0.166168212890625,
1.635,-0.010818243026733398,,1.635,-0.13943514227867126,
1.6375,-0.010842284187674522,,1.6375,-0.09584963321685791,
1.6399999999999999,-0.010818243026733398,,1.6399999999999999,-0.081016622483730316,
1.6425000000000001,-0.010746121406555176,,1.6425000000000001,-0.070631109178066254,
1.645,-0.010698040947318077,,1.645,-0.063779555261135101,
1.6475,-0.010649959556758404,,1.6475,-0.056062541902065277,
1.6499999999999999,-0.010649959556758404,,1.6499999999999999,-0.053105555474758148,
1.6525000000000001,-0.010746121406555176,,1.6525000000000001,-0.049812000244855881,
1.655,-0.010866324417293072,,1.655,-0.045917432755231857,
1.6575,-0.010986527428030968,,1.6575,-0.036517582833766937,
1.6599999999999999,-0.011130770668387413,,1.6599999999999999,-0.031589269638061523,
1.6625000000000001,-0.011443297378718853,,1.6625000000000001,-0.026949446648359299,
1.665,-0.011587540619075298,,1.665,-0.022886594757437706,
1.6675,-0.011707743629813194,,1.6675,-0.016900500282645226,
1.6699999999999999,-0.011803905479609966,,1.6699999999999999,-0.01492917537689209,
1.6725000000000001,-0.011948148719966412,,1.6725000000000001,-0.013438662514090538,
1.675,-0.011972188949584961,,1.675,-0.012236635200679302,
1.6775,-0.012020270340144634,,1.6775,-0.0098566217347979546,
1.6799999999999999,-0.012044310569763184,,1.6799999999999999,-0.0084141893312335014,
1.6825000000000001,-0.012068351730704308,,1.6825000000000001,-0.0066832704469561577,
1.6850000000000001,-0.012068351730704308,,1.6850000000000001,-0.0046398243866860867,
1.6875,-0.012068351730704308,,1.6875,0.00028848648071289062,
1.6899999999999999,-0.012068351730704308,,1.6899999999999999,0.0030291080474853516,
1.6924999999999999,-0.012020270340144634,,1.6924999999999999,0.0058899326249957085,
1.6950000000000001,-0.011948148719966412,,1.6950000000000001,0.0087747974321246147,
1.6975,-0.011876027099788189,,1.6975,0.014328162185847759,
1.7,-0.011755824089050293,,1.7,0.016876459121704102,
1.7024999999999999,-0.01139521598815918,,1.7024999999999999,0.019232433289289474,
1.7050000000000001,-0.011106729507446289,,1.7050000000000001,0.021396081894636154,
1.7075,-0.0107701625674963,,1.7075,0.025170445442199707,
1.71,-0.01031339168548584,,1.71,0.026877325028181076,
1.7124999999999999,-0.0090873241424560547,,1.7124999999999999,0.028536122292280197,
1.7150000000000001,-0.0082939863204956055,,1.7150000000000001,0.030243000015616417,
1.7175,-0.0073804459534585476,,1.7175,0.033897161483764648,
1.72,-0.0063707432709634304,,1.72,0.035940609872341156,
1.7224999999999999,-0.0042311353608965874,,1.7224999999999999,0.038200419396162033,
1.7250000000000001,-0.0031733512878417969,,1.7250000000000001,0.040652554482221603,
1.7275,-0.0021396081428974867,,1.7275,0.0461578369140625,
1.73,-0.0012020270805805922,,1.73,0.049186944961547852,
1.7324999999999999,0.00043272972106933594,,1.7324999999999999,0.052384339272975922,
1.7350000000000001,0.0011539459228515625,,1.7350000000000001,0.055701933801174164,
1.7375,0.0018511216621845961,,1.7375,0.062625609338283539,
1.74,0.0025482974015176296,,1.74,0.066207647323608398,
1.7424999999999999,0.0041590137407183647,,1.7424999999999999,0.069813728332519531,
1.7450000000000001,0.0050965948030352592,,1.7450000000000001,0.073491930961608887,
1.7475000000000001,0.0061062974855303764,,1.7475000000000001,0.080992579460144043,
1.75,0.007140040397644043,,1.75,0.08486311137676239,
1.7524999999999999,0.009135405533015728,,1.7524999999999999,0.088853836059570312,
1.7549999999999999,0.0099768247455358505,,1.7549999999999999,0.09301285445690155,
1.7575000000000001,0.010649959556758404,,1.7575000000000001,0.10193189233541489,
1.76,0.011130770668387413,,1.76,0.10678808391094208,
1.7625,0.01168370246887207,,1.7625,0.11188467592000961,
1.7649999999999999,0.011827945709228516,,1.7649999999999999,0.11726975440979004,
1.7675000000000001,0.011972188949584961,,1.7675000000000001,0.12873709201812744,
1.77,0.012188553810119629,,1.77,0.13477127254009247,
1.7725,0.012957851402461529,,1.7725,0.14092564582824707,
1.7749999999999999,0.013510784134268761,,1.7749999999999999,0.14712810516357422,
1.7775000000000001,0.014135837554931641,,1.7775000000000001,0.15941283106803894,
1.78,0.014760891906917095,,1.78,0.16535083949565887,
1.7825,0.015818675979971886,,1.7825,0.17104844748973846,
1.7849999999999999,0.0161312036216259,,1.7849999999999999,0.17645756900310516,
1.7875000000000001,0.016275446861982346,,1.7875000000000001,0.1862180233001709,
1.79,0.01629948616027832,,1.79,0.19047319889068604,
1.7925,0.016059082001447678,,1.7925,0.19431969523429871,
1.7949999999999999,0.015938878059387207,,1.7949999999999999,0.19773344695568085,
1.7975000000000001,0.015890797600150108,,1.7975000000000001,0.20328681170940399,
1.8,0.015962919220328331,,1.8,0.20547449588775635,
1.8025,0.016515851020812988,,1.8025,0.20727753639221191,
1.8049999999999999,0.016948580741882324,,1.8049999999999999,0.20867189764976501,
1.8075000000000001,0.017405351623892784,,1.8075000000000001,0.21021048724651337,
1.8100000000000001,0.01783808134496212,,1.8100000000000001,0.21023452281951904,
1.8125,0.018342932686209679,,1.8125,0.20965754985809326,
1.8149999999999999,0.018342932686209679,,1.8149999999999999,0.20835936069488525,
1.8174999999999999,0.018174648284912109,,1.8174999999999999,0.203094482421875,
1.8200000000000001,0.017814040184020996,,1.8200000000000001,0.19888739287853241,
1.8225,0.01675625704228878,,1.8225,0.19345423579216003,
1.825,0.016155242919921875,,1.825,0.18674692511558533,
1.8274999999999999,0.015554229728877544,,1.8274999999999999,0.16946177184581757,
1.8300000000000001,0.015025338158011436,,1.8300000000000001,0.15902817249298096,
1.8325,0.014183918945491314,,1.8325,0.14758488535881042,
1.835,0.013943513855338097,,1.835,0.13534824550151825,
1.8374999999999999,0.013799270614981651,,1.8374999999999999,0.10945658385753632,
1.8400000000000001,0.013775229454040527,,1.8400000000000001,0.096306405961513519,
1.8425,0.014087757095694542,,1.8425,0.083324514329433441,
1.845,0.014376243576407433,,1.845,0.07072727382183075,
1.8474999999999999,0.014760891906917095,,1.8474999999999999,0.047263704240322113,
1.8500000000000001,0.015193621627986431,,1.8500000000000001,0.036541622132062912,
1.8525,0.016083121299743652,,1.8525,0.026588838547468185,
1.855,0.01646777056157589,,1.855,0.017357271164655685,
1.8574999999999999,0.016780298203229904,,1.8574999999999999,0.0011299054604023695,
1.8600000000000001,0.016996663063764572,,1.8600000000000001,-0.0058899326249957085,
1.8625,0.017285149544477463,,1.8625,-0.012212594971060753,
1.865,0.017477473244071007,,1.865,-0.01783808134496212,
1.8674999999999999,0.017765959724783897,,1.8674999999999999,-0.027093689888715744,
1.8700000000000001,0.018222730606794357,,1.8700000000000001,-0.030747851356863976,
1.8725000000000001,0.0200017299503088,,1.8725000000000001,-0.033873122185468674,
1.875,0.021323960274457932,,1.875,-0.036493539810180664,
1.8774999999999999,0.022958716377615929,,1.8774999999999999,-0.040628515183925629,
1.8799999999999999,0.026805203408002853,,1.8799999999999999,-0.042311351746320724,
1.8825000000000001,0.028800567612051964,,1.8825000000000001,-0.043801866471767426,
1.885,0.030675729736685753,,1.885,-0.045196216553449631,
1.8875,0.032286446541547775,,1.8875,-0.047624312341213226,
1.8899999999999999,0.034329891204833984,,1.8899999999999999,-0.048658054322004318,
1.8925000000000001,0.0345943383872509,,1.8925000000000001,-0.049499474465847015,
1.895,0.034329891204833984,,1.895,-0.050172608345746994,
1.8975,0.033584635704755783,,1.8975,-0.050869785249233246,
1.8999999999999999,0.032406650483608246,,1.8999999999999999,-0.050893824547529221,
1.9025000000000001,0.029281377792358398,,1.9025000000000001,-0.050749581307172775,
1.905,0.027646621689200401,,1.905,-0.050485134124755859,
1.9075,0.026228230446577072,,1.9075,-0.049860082566738129,
1.9099999999999999,0.024761756882071495,,1.9099999999999999,-0.049595635384321213,
1.9125000000000001,0.025098323822021484,,1.9125000000000001,-0.049427352845668793,
1.915,0.026348432525992393,,1.915,-0.049379270523786545,
1.9175,0.028632283210754395,,1.9175,-0.049571596086025238,
1.9199999999999999,0.036301217973232269,,1.9199999999999999,-0.049787960946559906,
1.9225000000000001,0.041518013924360275,,1.9225000000000001,-0.049980282783508301,
1.925,0.047383904457092285,,1.925,-0.050124526023864746,
1.9275,0.053586363792419434,,1.9275,-0.050076447427272797,
1.9299999999999999,0.059740744531154633,,1.9299999999999999,-0.049812000244855881,
1.9325000000000001,0.070294544100761414,,1.9325000000000001,-0.04940330982208252,
1.9350000000000001,0.073876582086086273,,1.9350000000000001,-0.048874419182538986,
1.9375,0.075871944427490234,,1.9375,-0.04752814769744873,
1.9399999999999999,0.07454971969127655,,1.9399999999999999,-0.046855013817548752,
1.9424999999999999,0.071232125163078308,,1.9424999999999999,-0.046229958534240723,
1.9450000000000001,0.066351890563964844,,1.9450000000000001,-0.045725107192993164,
1.9475,0.060245595872402191,,1.9475,-0.045148134231567383,
1.95,0.045917432755231857,,1.95,-0.045100055634975433,
1.9524999999999999,0.038512945175170898,,1.9524999999999999,-0.045124094933271408,
1.9550000000000001,0.031445026397705078,,1.9550000000000001,-0.045220255851745605,
1.9575,0.024978121742606163,,1.9575,-0.045244298875331879,
1.96,0.014472405426204205,,1.96,-0.045027934014797211,
1.9624999999999999,0.010457634925842285,,1.9624999999999999,-0.044571161270141602,
1.9650000000000001,0.0071640810929238796,,1.9650000000000001,-0.0438259057700634,
1.9675,0.0044475002214312553,,1.9675,-0.041349731385707855,
1.97,2.4040540665737353e-05,,1.97,-0.039714973419904709,
1.9724999999999999,-0.0018751621246337891,,1.9724999999999999,-0.03783981129527092,
1.9750000000000001,-0.0035580000840127468,,1.9750000000000001,-0.035868488252162933,
1.9775,-0.0049763917922973633,,1.9775,-0.032021999359130859,
1.98,-0.0062265000306069851,,1.98,-0.030339162796735764,
1.9824999999999999,-0.0056495270691812038,,1.9824999999999999,-0.028968852013349533,
1.9850000000000001,-0.0040628514252603054,,1.9850000000000001,-0.027911067008972168,
1.9875,-0.0014905135612934828,,1.9875,-0.026781162247061729,
1.99,0.0056495270691812038,,1.99,-0.026636919006705284,
1.9924999999999999,0.0091113653033971786,,1.9924999999999999,-0.026660960167646408,
1.9950000000000001,0.011467337608337402,,1.9950000000000001,-0.026757121086120605,
1.9975000000000001,0.011707743629813194,,1.9975000000000001,-0.026853283867239952,
2,0.0019953649025410414,90.225563049316406,2,-0.026709040626883507,92.130516052246094
2.0024999999999999,-0.0094719734042882919,,2.0024999999999999,-0.026372473686933517,
2.0049999999999999,-0.025747418403625488,,2.0049999999999999,-0.025867622345685959,
2.0074999999999998,-0.046614609658718109,,2.0074999999999998,-0.024521350860595703,
2.0099999999999998,-0.098181568086147308,,2.0099999999999998,-0.023776095360517502,
2.0125000000000002,-0.12546758353710175,,2.0125000000000002,-0.02307891845703125,
2.0150000000000001,-0.15063802897930145,,2.0150000000000001,-0.022477906197309494,
2.0175000000000001,-0.1708320826292038,,2.0175000000000001,-0.02170860767364502,
2.02,-0.18405437469482422,,2.02,-0.021588405594229698,
2.0225,-0.17104844748973846,,2.0225,-0.021588405594229698,
2.0249999999999999,-0.1415507048368454,,2.0249999999999999,-0.021684568375349045,
2.0274999999999999,-0.093734070658683777,,2.0274999999999999,-0.021924972534179688,
2.0299999999999998,0.058827202767133713,,2.0299999999999998,-0.021949013695120811,
2.0325000000000002,0.16145627200603485,,2.0325000000000002,-0.021852850914001465,
2.0350000000000001,0.27774035930633545,,2.0350000000000001,-0.021612446755170822,
2.0375000000000001,0.40284734964370728,,2.0375000000000001,-0.020578702911734581,
2.04,0.6538546085357666,,2.04,-0.01983344554901123,
2.0425,0.76475363969802856,,2.0425,-0.018943946808576584,
2.0449999999999999,0.85565090179443359,,2.0449999999999999,-0.017982324585318565,
2.0474999999999999,0.91971898078918457,,2.0474999999999999,-0.015986960381269455,
2.0499999999999998,0.94818294048309326,,2.0499999999999998,-0.015025338158011436,
2.0525000000000002,0.90882861614227295,,2.0525000000000002,-0.014111797325313091,
2.0550000000000002,0.8357694149017334,,2.0550000000000002,-0.013294419273734093,
2.0575000000000001,0.73390960693359375,,2.0575000000000001,-0.011827945709228516,
2.0600000000000001,0.47362267971038818,,2.0600000000000001,-0.011106729507446289,
2.0625,0.33324998617172241,,2.0625,-0.010385513305664062,
2.0649999999999999,0.19828638434410095,,2.0649999999999999,-0.0095681352540850639,
2.0674999999999999,0.076665282249450684,,2.0674999999999999,-0.0075246891938149929,
2.0699999999999998,-0.10431190580129623,,2.0699999999999998,-0.0062745809555053711,
2.0724999999999998,-0.15854737162590027,,2.0724999999999998,-0.0049283108673989773,
2.0750000000000002,-0.18917500972747803,,2.0750000000000002,-0.0034858784638345242,
2.0775000000000001,-0.1991758793592453,,2.0775000000000001,-0.00084141892148181796,
2.0800000000000001,-0.17503917217254639,,2.0800000000000001,0.00016828379011712968,
2.0825,-0.15080630779266357,,2.0825,0.00084141892148181796,
2.085,-0.12450595945119858,,2.085,0.0011299054604023695,
2.0874999999999999,-0.099551878869533539,,2.0874999999999999,0.00069717568112537265,
2.0899999999999999,-0.061543785035610199,,2.0899999999999999,0.00019232432532589883,
2.0924999999999998,-0.049667757004499435,,2.0924999999999998,-0.00021636486053466797,
2.0950000000000002,-0.041926704347133636,,2.0950000000000002,-0.000312527030473575,
2.0975000000000001,-0.037166677415370941,,2.0975000000000001,0.0015145540237426758,
2.1000000000000001,-0.031877756118774414,,2.1000000000000001,0.0038464865647256374,
2.1025,-0.029353499412536621,,2.1025,0.0072362027131021023,
2.105,-0.026156108826398849,,2.105,0.016948580741882324,
2.1074999999999999,-0.022117298096418381,,2.1074999999999999,0.022790431976318359,
2.1099999999999999,-0.012308756820857525,,2.1099999999999999,0.028800567612051964,
2.1124999999999998,-0.0071881217882037163,,2.1124999999999998,0.034546256065368652,
2.1150000000000002,-0.0024521350860595703,,2.1150000000000002,0.039594769477844238,
2.1175000000000002,0.0017068784218281507,,2.1175000000000002,0.045965515077114105,
2.1200000000000001,0.0078372163698077202,,2.1200000000000001,0.046782892197370529,
2.1225000000000001,0.0098806619644165039,,2.1225000000000001,0.045869350433349609,
2.125,0.011467337608337402,,2.125,0.043297015130519867,
2.1274999999999999,0.012789567932486534,,2.1274999999999999,0.034113526344299316,
2.1299999999999999,0.015241703018546104,,2.1299999999999999,0.02815147303044796,
2.1324999999999998,0.016636054962873459,,2.1324999999999998,0.021756689995527267,
2.1349999999999998,0.018222730606794357,,2.1349999999999998,0.0090873241424560547,
2.1375000000000002,0.0200017299503088,,2.1375000000000002,0.0033175945281982422,
2.1400000000000001,0.02399246022105217,,2.1400000000000001,-0.0018511216621845961,
2.1425000000000001,0.026132067665457726,,2.1425000000000001,-0.0063707432709634304,
2.145,0.028295716270804405,,2.145,-0.010217229835689068,
2.1475,0.030459364876151085,,2.1475,-0.016203325241804123,
2.1499999999999999,0.0345943383872509,,2.1499999999999999,-0.018511217087507248,
2.1524999999999999,0.036565661430358887,,2.1524999999999999,-0.020434459671378136,
2.1549999999999998,0.038416784256696701,,2.1549999999999998,-0.023319324478507042,
2.1575000000000002,0.040195785462856293,,2.1575000000000002,-0.024232864379882812,
2.1600000000000001,0.04353741928935051,,2.1600000000000001,-0.024665594100952148,
2.1625000000000001,0.045172177255153656,,2.1625000000000001,-0.024521350860595703,
2.165,0.046782892197370529,,2.165,-0.022021135315299034,
2.1675,0.048465728759765625,,2.1675,-0.019593041390180588,
2.1699999999999999,0.052071809768676758,,2.1699999999999999,-0.016443729400634766,
2.1724999999999999,0.054091215133666992,,2.1724999999999999,-0.012861689552664757,
2.1749999999999998,0.056254863739013672,,2.1749999999999998,-0.0061543784104287624,
2.1775000000000002,0.058610837906599045,,2.1775000000000002,-0.0043753786012530327,
2.1800000000000002,0.063827633857727051,,2.1800000000000002,-0.0046638650819659233,
2.1825000000000001,0.066712498664855957,,2.1825000000000001,-0.0078852977603673935,
2.1850000000000001,0.069741606712341309,,2.1850000000000001,-0.025603175163269043,
2.1875,0.072890922427177429,,2.1875,-0.040700636804103851,
2.1899999999999999,0.079598233103752136,,2.1899999999999999,-0.059596501290798187,
2.1924999999999999,0.083108149468898773,,2.1924999999999999,-0.081449352204799652,
2.1949999999999998,0.086714230477809906,,2.1949999999999998,-0.12751102447509766,
2.1974999999999998,0.090392433106899261,,2.1974999999999998,-0.14724831283092499,
2.2000000000000002,0.098109446465969086,,2.2000000000000002,-0.16119182109832764,
2.2025000000000001,0.10214825719594955,,2.2025000000000001,-0.16640862822532654,
2.2050000000000001,0.10635535418987274,,2.2050000000000001,-0.13953129947185516,
2.2075,0.11073072999715805,,2.2075,-0.10306179523468018,
2.21,0.12013058364391327,,2.21,-0.049619674682617188,
2.2124999999999999,0.12520313262939453,,2.2124999999999999,0.020722946152091026,
2.2149999999999999,0.13054013252258301,,2.2149999999999999,0.2051379382610321,
2.2174999999999998,0.13609349727630615,,2.2174999999999998,0.31238278746604919,
2.2200000000000002,0.14789740741252899,,2.2200000000000002,0.42294523119926453,
2.2225000000000001,0.15402774512767792,,2.2225000000000001,0.53062283992767334,
2.2250000000000001,0.16027829051017761,,2.2250000000000001,0.7103499174118042,
2.2275,0.16655287146568298,,2.2275,0.76960980892181396,
2.23,0.17900586128234863,,2.23,0.80153566598892212,
2.2324999999999999,0.18506407737731934,,2.2324999999999999,0.80307424068450928,
2.2349999999999999,0.19097805023193359,,2.2349999999999999,0.71337902545928955,
2.2374999999999998,0.19665162265300751,,2.2374999999999998,0.62733793258666992,
2.2400000000000002,0.20210883021354675,,2.2400000000000002,0.5207902193069458,
2.2425000000000002,0.21218180656433105,,2.2425000000000002,0.40109238028526306,
2.2450000000000001,0.2167975902557373,,2.2450000000000001,0.15467683970928192,
2.2475000000000001,0.22105276584625244,,2.2475000000000001,0.043489336967468262,
2.25,0.2285534143447876,,2.25,-0.051182311028242111,
2.2524999999999999,0.23170273005962372,,2.2524999999999999,-0.12534737586975098,
2.2549999999999999,0.2344193160533905,,2.2549999999999999,-0.20679673552513123,
2.2574999999999998,0.23660700023174286,,2.2574999999999998,-0.21658122539520264,
2.2599999999999998,0.23922741413116455,,2.2599999999999998,-0.21006624400615692,
2.2625000000000002,0.23946782946586609,,2.2625000000000002,-0.19179543852806091,
2.2650000000000001,0.23884277045726776,,2.2650000000000001,-0.13832926750183105,
2.2675000000000001,0.23728013038635254,,2.2675000000000001,-0.11116345971822739,
2.27,0.23081323504447937,,2.27,-0.087459489703178406,
2.2725,0.22576472163200378,,2.2725,-0.068659782409667969,
2.2749999999999999,0.21944205462932587,,2.2749999999999999,-0.046350162476301193,
2.2774999999999999,0.21179716289043427,,2.2774999999999999,-0.041349731385707855,
2.2799999999999998,0.19292533397674561,,2.2799999999999998,-0.038777392357587814,
2.2825000000000002,0.18191477656364441,,2.2825000000000002,-0.037358999252319336,
2.2850000000000001,0.17008683085441589,,2.2850000000000001,-0.033969283103942871,
2.2875000000000001,0.15765786170959473,,2.2875000000000001,-0.030892094597220421,
2.29,0.13193449378013611,,2.29,-0.026709040626883507,
2.2925,0.11907279491424561,,2.2925,-0.02170860767364502,
2.2949999999999999,0.10649959743022919,,2.2949999999999999,-0.01060187816619873,
2.2974999999999999,0.094335079193115234,,2.2974999999999999,-0.0052889189682900906,
2.2999999999999998,0.071664854884147644,,2.2999999999999998,-0.00050485134124755859,
2.3025000000000002,0.061255298554897308,,2.3025000000000002,0.0036301217041909695,
2.3050000000000002,0.051470797508955002,,2.3050000000000002,0.0100008649751544,
2.3075000000000001,0.042311351746320724,,2.3075000000000001,0.01247704029083252,
2.3100000000000001,0.025723379105329514,,2.3100000000000001,0.014640688896179199,
2.3125,0.018246769905090332,,2.3125,0.016660094261169434,
2.3149999999999999,0.011299054138362408,,2.3149999999999999,0.020554661750793457,
2.3174999999999999,0.0048802299425005913,,2.3174999999999999,0.022525986656546593,
2.3199999999999998,-0.0064188241958618164,,2.3199999999999998,0.024521350860595703,
2.3224999999999998,-0.011275013908743858,,2.3224999999999998,0.026516716927289963,
2.3250000000000002,-0.015578269958496094,,2.3250000000000002,0.030483406037092209,
2.3275000000000001,-0.019400715827941895,,2.3275000000000001,0.032478772103786469,
2.3300000000000001,-0.025603175163269043,,2.3300000000000001,0.034498177468776703,
2.3325,-0.028103392571210861,,2.3325,0.036541622132062912,
2.335,-0.030267041176557541,,2.335,0.040844880044460297,
2.3374999999999999,-0.03214220330119133,,2.3374999999999999,0.043080650269985199,
2.3399999999999999,-0.035267472267150879,,2.3399999999999999,0.045364499092102051,
2.3424999999999998,-0.036541622132062912,,2.3424999999999998,0.047624312341213226,
2.3450000000000002,-0.0376715287566185,,2.3450000000000002,0.052047770470380783,
2.3475000000000001,-0.038633149117231369,,2.3475000000000001,0.054163336753845215,
2.3500000000000001,-0.040027499198913574,,2.3500000000000001,0.056230824440717697,
2.3525,-0.040484271943569183,,2.3525,0.058274269104003906,
2.355,-0.040772758424282074,,2.355,0.062433283776044846,
2.3574999999999999,-0.040892958641052246,,2.3574999999999999,0.064693093299865723,
2.3599999999999999,-0.040917001664638519,,2.3599999999999999,0.06707310676574707,
2.3624999999999998,-0.040628515183925629,,2.3624999999999998,0.06964544951915741,
2.3650000000000002,-0.040412150323390961,,2.3650000000000002,0.075294971466064453,
2.3675000000000002,-0.040147703140974045,,2.3675000000000002,0.078300043940544128,
2.3700000000000001,-0.039642851799726486,,2.3700000000000001,0.081401273608207703,
2.3725000000000001,-0.039426486939191818,,2.3725000000000001,0.084550581872463226,
2.375,-0.039306282997131348,,2.375,0.090921327471733093,
2.3774999999999999,-0.039234161376953125,,2.3774999999999999,0.094166800379753113,
2.3799999999999999,-0.039330326020717621,,2.3799999999999999,0.097508430480957031,
2.3824999999999998,-0.039498608559370041,,2.3824999999999998,0.10101835429668427,
2.3849999999999998,-0.039714973419904709,,2.3849999999999998,0.10871132463216782,
2.3875000000000002,-0.039931338280439377,,2.3875000000000002,0.11303862184286118,
2.3900000000000001,-0.04017174243927002,,2.3900000000000001,0.11770248413085938,
2.3925000000000001,-0.040147703140974045,,2.3925000000000001,0.12272696197032928,
2.395,-0.039955377578735352,,2.395,0.13368944823741913,
2.3975,-0.039594769477844238,,2.3975,0.13948321342468262,
2.3999999999999999,-0.038464866578578949,,2.3999999999999999,0.1453731507062912,
2.4024999999999999,-0.037791728973388672,,2.4024999999999999,0.15126308798789978,
2.4049999999999998,-0.037094555795192719,,2.4049999999999998,0.16277849674224854,
2.4075000000000002,-0.036445461213588715,,2.4075000000000002,0.16828379034996033,
2.4100000000000001,-0.035628080368041992,,2.4100000000000001,0.17354866862297058,
2.4125000000000001,-0.03550788015127182,,2.4125000000000001,0.17859718203544617,
2.415,-0.035604041069746017,,2.415,0.18792490661144257,
2.4175,-0.035868488252162933,,2.4175,0.19222816824913025,
2.4199999999999999,-0.03675798699259758,,2.4199999999999999,0.19626697897911072,
2.4224999999999999,-0.037238799035549164,,2.4224999999999999,0.20006537437438965,
2.4249999999999998,-0.0376715287566185,,2.4249999999999998,0.20679673552513123,
2.4275000000000002,-0.037984054535627365,,2.4275000000000002,0.20968160033226013,
2.4300000000000002,-0.038176380097866058,,2.4300000000000002,0.2122298926115036,
2.4325000000000001,-0.038080215454101562,,2.4325000000000001,0.2143695056438446,
2.4350000000000001,-0.037863850593566895,,2.4350000000000001,0.21610042452812195,
2.4375,-0.037599407136440277,,2.4375,0.21804770827293396,
2.4399999999999999,-0.037022434175014496,,2.4399999999999999,0.21816790103912354,
2.4424999999999999,-0.036733947694301605,,2.4424999999999999,0.2176390141248703,
2.4449999999999998,-0.036517582833766937,,2.4449999999999998,0.21439354121685028,
2.4474999999999998,-0.036325257271528244,,2.4474999999999998,0.21153271198272705,
2.4500000000000002,-0.035940609872341156,,2.4500000000000002,0.20778238773345947,
2.4525000000000001,-0.035700201988220215,,2.4525000000000001,0.20304641127586365,
2.4550000000000001,-0.035411715507507324,,2.4550000000000001,0.19061744213104248,
2.4575,-0.035051107406616211,,2.4575,0.1828523576259613,
2.46,-0.034065447747707367,,2.46,0.17412564158439636,
2.4624999999999999,-0.033488474786281586,,2.4624999999999999,0.16450941562652588,
2.4649999999999999,-0.032839380204677582,,2.4649999999999999,0.14292101562023163,
2.4674999999999998,-0.032166242599487305,,2.4674999999999998,0.13126134872436523,
2.4700000000000002,-0.030844014137983322,,2.4700000000000002,0.11928915977478027,
2.4725000000000001,-0.030243000015616417,,2.4725000000000001,0.10714869201183319,
2.4750000000000001,-0.029738148674368858,,2.4750000000000001,0.083228349685668945,
2.4775,-0.029281377792358398,,2.4775,0.071761012077331543,
2.48,-0.028536122292280197,,2.48,0.060822568833827972,
2.4824999999999999,-0.028223594650626183,,2.4824999999999999,0.050485134124755859,
2.4849999999999999,-0.027935108169913292,,2.4849999999999999,0.031901799142360687,
2.4874999999999998,-0.027622580528259277,,2.4874999999999998,0.023631852120161057,
2.4900000000000002,-0.026901364326477051,,2.4900000000000002,0.016059082001447678,
2.4925000000000002,-0.026492675766348839,,2.4925000000000002,0.0091113653033971786,
2.4950000000000001,-0.026059946045279503,,2.4950000000000001,-0.0031012296676635742,
2.4975000000000001,-0.025603175163269043,,2.4975000000000001,-0.0084863109514117241,
2.5,-0.024665594100952148,,2.5,-0.013438662514090538,
2.5024999999999999,-0.024208825081586838,,2.5024999999999999,-0.018030405044555664,
2.5049999999999999,-0.023752054199576378,,2.5049999999999999,-0.026108026504516602,
2.5074999999999998,-0.023319324478507042,,2.5074999999999998,-0.029593905434012413,
2.5099999999999998,-0.022477906197309494,,2.5099999999999998,-0.032767258584499359,
2.5125000000000002,-0.022045176476240158,,2.5125000000000002,-0.03555595874786377,
2.5150000000000001,-0.021588405594229698,,2.5150000000000001,-0.037984054535627365,
2.5175000000000001,-0.021131634712219238,,2.5175000000000001,-0.041806500405073166,
2.52,-0.020218094810843468,,2.52,-0.043224893510341644,
2.5225,-0.019785365089774132,,2.5225,-0.044354796409606934,
2.5249999999999999,-0.019400715827941895,,2.5249999999999999,-0.045917432755231857,
2.5274999999999999,-0.019064148887991905,,2.5274999999999999,-0.046422284096479416,
2.5299999999999998,-0.018559297546744347,,2.5299999999999998,-0.046806931495666504,
2.5325000000000002,-0.018415054306387901,,2.5325000000000002,-0.047119460999965668,
2.5350000000000001,-0.01829485222697258,,2.5350000000000001,-0.047576230019330978,
2.5375000000000001,-0.018222730606794357,,2.5375000000000001,-0.047768555581569672,
2.54,-0.018006365746259689,,2.54,-0.048008959740400314,
2.5425,-0.01783808134496212,,2.5425,-0.048297446221113205,
2.5449999999999999,-0.017597675323486328,,2.5449999999999999,-0.049042701721191406,
2.5474999999999999,-0.017285149544477463,,2.5474999999999999,-0.049547553062438965,
2.5499999999999998,-0.016515851020812988,,2.5499999999999998,-0.050076447427272797,
2.5525000000000002,-0.016083121299743652,,2.5525000000000002,-0.050677459686994553,
2.5550000000000002,-0.015722513198852539,,2.5550000000000002,-0.051903527230024338,
2.5575000000000001,-0.015434026718139648,,2.5575000000000001,-0.052456460893154144,
2.5600000000000001,-0.015241703018546104,,2.5600000000000001,-0.05288919061422348,
2.5625,-0.01538594625890255,,2.5625,-0.053201716393232346,
2.5649999999999999,-0.015698473900556564,,2.5649999999999999,-0.053249798715114594,
2.5674999999999999,-0.016155242919921875,,2.5674999999999999,-0.052961312234401703,
2.5699999999999998,-0.017285149544477463,,2.5699999999999998,-0.052480500191450119,
2.5724999999999998,-0.017886161804199219,,2.5724999999999998,-0.05180736631155014,
2.5750000000000002,-0.018439095467329025,,2.5750000000000002,-0.050028365105390549,
2.5775000000000001,-0.018871825188398361,,2.5775000000000001,-0.049018662422895432,
2.5800000000000001,-0.019256472587585449,,2.5800000000000001,-0.04798492044210434,
2.5825,-0.019160311669111252,,2.5825,-0.046975217759609222,
2.585,-0.018871825188398361,,2.585,-0.045100055634975433,
2.5874999999999999,-0.018439095467329025,,2.5874999999999999,-0.044258635491132736,
2.5899999999999999,-0.017164945602416992,,2.5899999999999999,-0.043465297669172287,
2.5924999999999998,-0.01646777056157589,,2.5924999999999998,-0.042695999145507812,
2.5950000000000002,-0.015794634819030762,,2.5950000000000002,-0.041229527443647385,
2.5975000000000001,-0.01521766185760498,,2.5975000000000001,-0.04046022891998291,
2.6000000000000001,-0.014472405426204205,,2.6000000000000001,-0.039642851799726486,
2.6025,-0.014376243576407433,,2.6025,-0.038801431655883789,
2.605,-0.014472405426204205,,2.605,-0.03692626953125,
2.6074999999999999,-0.014760891906917095,,2.6074999999999999,-0.035916566848754883,
2.6099999999999999,-0.015698473900556564,,2.6099999999999999,-0.034858785569667816,
2.6124999999999998,-0.016251405701041222,,2.6124999999999998,-0.033704839646816254,
2.6150000000000002,-0.016804337501525879,,2.6150000000000002,-0.031252704560756683,
2.6175000000000002,-0.017285149544477463,,2.6175000000000002,-0.029906433075666428,
2.6200000000000001,-0.017741918563842773,,2.6200000000000001,-0.028536122292280197,
2.6225000000000001,-0.017573636025190353,,2.6225000000000001,-0.027141770347952843,
2.625,-0.017068784683942795,,2.625,-0.02444922924041748,
2.6274999999999999,-0.016155242919921875,,2.6274999999999999,-0.023223161697387695,
2.6299999999999999,-0.012981891632080078,,2.6299999999999999,-0.022117298096418381,
2.6324999999999998,-0.010722081176936626,,2.6324999999999998,-0.021203756332397461,
2.6349999999999998,-0.0081257028505206108,,2.6349999999999998,-0.019953649491071701,
2.6375000000000002,-0.0052167973481118679,,2.6375000000000002,-0.019593041390180588,
2.6400000000000001,0.00079333782196044922,,2.6400000000000001,-0.019352635368704796,
2.6425000000000001,0.0035580000840127468,,2.6425000000000001,-0.019208392128348351,
2.645,0.0059139728546142578,,2.645,-0.019040107727050781,
2.6475,0.0076689324341714382,,2.6475,-0.018895864486694336,
2.6499999999999999,0.0089911622926592827,,2.6499999999999999,-0.018727581948041916,
2.6524999999999999,0.0084382295608520508,,2.6524999999999999,-0.018487175926566124,
2.6549999999999998,0.007140040397644043,,2.6549999999999998,-0.017982324585318565,
2.6575000000000002,0.0052408380433917046,,2.6575000000000002,-0.017790000885725021,
2.6600000000000001,0.00043272972106933594,,2.6600000000000001,-0.017645757645368576,
2.6625000000000001,-0.0019953649025410414,,2.6625000000000001,-0.017597675323486328,
2.665,-0.0040388107299804688,,2.665,-0.017790000885725021,
2.6675,-0.0054812431335449219,,2.6675,-0.017934244126081467,
2.6699999999999999,-0.0057216486893594265,,2.6699999999999999,-0.018054446205496788,
2.6724999999999999,-0.0041830539703369141,,2.6724999999999999,-0.018078487366437912,
2.6749999999999998,-0.0014905135612934828,,2.6749999999999998,-0.017573636025190353,
2.6775000000000002,0.0023559730034321547,,2.6775000000000002,-0.016972621902823448,
2.6800000000000002,0.013078054413199425,,2.6800000000000002,-0.016107162460684776,
2.6825000000000001,0.019520919770002365,,2.6825000000000001,-0.015001296997070312,
2.6850000000000001,0.02632439136505127,,2.6850000000000001,-0.012284716591238976,
2.6875,0.033127866685390472,,2.6875,-0.0107701625674963,
2.6899999999999999,0.045196216553449631,,2.6899999999999999,-0.0092796487733721733,
2.6924999999999999,0.04969179630279541,,2.6924999999999999,-0.0078852977603673935,
2.6949999999999998,0.052720904350280762,,2.6949999999999998,-0.0056735677644610405,
2.6974999999999998,0.054043136537075043,,2.6974999999999998,-0.0050244731828570366,
2.7000000000000002,0.051182311028242111,,2.7000000000000002,-0.0046879053115844727,
2.7025000000000001,0.04707137867808342,,2.7025000000000001,-0.004735986702144146,
2.7050000000000001,0.041493974626064301,,2.7050000000000001,-0.0058418512344360352,
2.7075,0.034714542329311371,,2.7075,-0.0067794322967529297,
2.71,0.019280513748526573,,2.71,-0.0077650947496294975,
2.7124999999999999,0.011419257149100304,,2.7124999999999999,-0.0086545944213867188,
2.7149999999999999,0.0039907298050820827,,2.7149999999999999,-0.0093277301639318466,
2.7174999999999998,-0.0027887027245014906,,2.7174999999999998,-0.0087267160415649414,
2.7200000000000002,-0.013655027374625206,,2.7200000000000002,-0.0072362027131021023,
2.7225000000000001,-0.017741918563842773,,2.7225000000000001,-0.004832148551940918,
2.7250000000000001,-0.020987391471862793,,2.7250000000000001,0.0027887027245014906,
2.7275,-0.023607810959219933,,2.7275,0.0077170133590698242,
2.73,-0.027382176369428635,,2.73,0.013029973022639751,
2.7324999999999999,-0.028728445991873741,,2.7324999999999999,0.018391013145446777,
2.7349999999999999,-0.02969006821513176,,2.7349999999999999,0.027790864929556847,
2.7374999999999998,-0.030218958854675293,,2.7374999999999998,0.031108459457755089,
2.7400000000000002,-0.029257338494062424,,2.7400000000000002,0.033151905983686447,
2.7425000000000002,-0.02752641960978508,,2.7425000000000002,0.033728878945112228,
2.7450000000000001,-0.024930041283369064,,2.7450000000000001,0.030435323715209961,
2.7475000000000001,-0.021636486053466797,,2.7475000000000001,0.026781162247061729,
2.75,-0.014808973297476768,,2.75,0.022093256935477257,
2.7524999999999999,-0.012693405151367188,,2.7524999999999999,0.016636054962873459,
2.7549999999999999,-0.012669364921748638,,2.7549999999999999,0.00461578369140625,
2.7574999999999998,-0.015722513198852539,,2.7574999999999998,-0.0013943513622507453,
2.7599999999999998,-0.03430585190653801,,2.7599999999999998,-0.007091959472745657,
2.7625000000000002,-0.050677459686994553,,2.7625000000000002,-0.012404918670654297,
2.7650000000000001,-0.071568690240383148,,2.7650000000000001,-0.021396081894636154,
2.7675000000000001,-0.096114084124565125,,2.7675000000000001,-0.025098323822021484,
2.77,-0.14979660511016846,,2.77,-0.028295716270804405,
2.7725,-0.17434200644493103,,2.7725,-0.03106037899851799,
2.7749999999999999,-0.19362251460552216,,2.7749999999999999,-0.035411715507507324,
2.7774999999999999,-0.20456096529960632,,2.7774999999999999,-0.037070512771606445,
2.7799999999999998,-0.1891028881072998,,2.7799999999999998,-0.038344662636518478,
2.7825000000000002,-0.15744149684906006,,2.7825000000000002,-0.039162039756774902,
2.7850000000000001,-0.10734101384878159,,2.7850000000000001,-0.03904183954000473,
2.7875000000000001,-0.038032136857509613,,2.7875000000000001,-0.037935972213745117,
2.79,0.15479704737663269,,2.79,-0.036036770790815353,
2.7925,0.27305245399475098,,2.7925,-0.033440392464399338,
2.7949999999999999,0.39986631274223328,,2.7949999999999999,-0.027213891968131065,
2.7974999999999999,0.52906018495559692,,2.7974999999999999,-0.024545392021536827,
2.7999999999999998,0.7651863694190979,,2.7999999999999998,-0.02307891845703125,
2.8025000000000002,0.85678082704544067,,2.8025000000000002,-0.023655891418457031,
2.8050000000000002,0.92132967710494995,,2.8050000000000002,-0.034161608666181564,
2.8075000000000001,0.95351994037628174,,2.8075000000000001,-0.045196216553449631,
2.8100000000000001,0.91063165664672852,,2.8100000000000001,-0.060365796089172363,
2.8125,0.83704352378845215,,2.8125,-0.079189538955688477,
2.8149999999999999,0.73419809341430664,,2.8149999999999999,-0.12325584888458252,
2.8174999999999999,0.60913920402526855,,2.8174999999999999,-0.14477214217185974,
2.8199999999999998,0.3276725709438324,,2.8199999999999998,-0.16261021792888641,
2.8224999999999998,0.18980006873607635,,2.8224999999999998,-0.17390927672386169,
2.8250000000000002,0.064981579780578613,,2.8250000000000002,-0.16515851020812988,
2.8275000000000001,-0.040508311241865158,,2.8275000000000001,-0.13993999361991882,
2.8300000000000001,-0.17999152839183807,,2.8300000000000001,-0.098446011543273926,
2.8325,-0.21331171691417694,,2.8325,-0.039979420602321625,
2.835,-0.22547623515129089,,2.835,0.12443383783102036,
2.8374999999999999,-0.22062003612518311,,2.8374999999999999,0.22533199191093445,
2.8399999999999999,-0.17967900633811951,,2.8399999999999999,0.33315381407737732,
2.8424999999999998,-0.1530180424451828,,2.8424999999999998,0.44224977493286133,
2.8450000000000002,-0.12724658846855164,,2.8450000000000002,0.63861292600631714,
2.8475000000000001,-0.10476867854595184,,2.8475000000000001,0.71268182992935181,
2.8500000000000001,-0.073684260249137878,,2.8500000000000001,0.76285445690155029,
2.8525,-0.064789257943630219,,2.8525,0.78482747077941895,
2.855,-0.059115689247846603,,2.855,0.73667430877685547,
2.8574999999999999,-0.055533647537231445,,2.8574999999999999,0.66835105419158936,
2.8599999999999999,-0.05043705552816391,,2.8599999999999999,0.57557862997055054,
2.8624999999999998,-0.047552190721035004,,2.8624999999999998,0.46451133489608765,
2.8650000000000002,-0.04399418830871582,,2.8650000000000002,0.21804770827293396,
2.8675000000000002,-0.039883255958557129,,2.8675000000000002,0.09871046245098114,
2.8700000000000001,-0.030868053436279297,,2.8700000000000001,-0.0083901491016149521,
2.8725000000000001,-0.026588838547468185,,2.8725000000000001,-0.097845003008842468,
2.875,-0.022766392678022385,,2.875,-0.2121337354183197,
2.8774999999999999,-0.01954495906829834,,2.8774999999999999,-0.23646275699138641,
2.8799999999999999,-0.014857053756713867,,2.8799999999999999,-0.24172763526439667,
2.8824999999999998,-0.013150176033377647,,2.8824999999999998,-0.23177485167980194,
2.8849999999999998,-0.01168370246887207,,2.8849999999999998,-0.18439094722270966,
2.8875000000000002,-0.010265311226248741,,2.8875000000000002,-0.15571057796478271,
2.8900000000000001,-0.0071640810929238796,,2.8900000000000001,-0.12844860553741455,
2.8925000000000001,-0.0053369998931884766,,2.8925000000000001,-0.10481675714254379,
2.895,-0.0033175945281982422,,2.895,-0.072313949465751648,
2.8975,-0.0011299054604023695,,2.8975,-0.063058339059352875,
2.8999999999999999,0.0035099189262837172,,2.8999999999999999,-0.05721648782491684,
2.9024999999999999,0.0058418512344360352,,2.9024999999999999,-0.053634446114301682,
2.9049999999999998,0.0081257028505206108,,2.9049999999999998,-0.048682093620300293,
2.9075000000000002,0.010361473076045513,,2.9075000000000002,-0.045797228813171387,
2.9100000000000001,0.014544527046382427,,2.9100000000000001,-0.042215190827846527,
2.9125000000000001,0.016515851020812988,,2.9125000000000001,-0.037911932915449142,
2.915,0.018463134765625,,2.915,-0.028199553489685059,
2.9175,0.020362338051199913,,2.9175,-0.023415487259626389,
2.9199999999999999,0.024112662300467491,,2.9199999999999999,-0.018992027267813683,
2.9224999999999999,0.025939743965864182,,2.9224999999999999,-0.015121500007808208,
2.9249999999999998,0.027766823768615723,,2.9249999999999998,-0.009015202522277832,
2.9275000000000002,0.029545824974775314,,2.9275000000000002,-0.0066351890563964844,
2.9300000000000002,0.033103823661804199,,2.9300000000000002,-0.0045436620712280273,
2.9325000000000001,0.034930907189846039,,2.9325000000000001,-0.0025723378639668226,
2.9350000000000001,0.036830108612775803,,2.9350000000000001,0.0012981891632080078,
2.9375,0.038897596299648285,,2.9375,0.0032935540657490492,
2.9399999999999999,0.043609540909528732,,2.9399999999999999,0.0053610405884683132,
2.9424999999999999,0.046350162476301193,,2.9424999999999999,0.0075006484985351562,
2.9449999999999998,0.049379270523786545,,2.9449999999999998,0.011900067329406738,
2.9474999999999998,0.052696865051984787,,2.9474999999999998,0.014135837554931641,
2.9500000000000002,0.059957109391689301,,2.9500000000000002,0.016371607780456543,
2.9525000000000001,0.063803598284721375,,2.9525000000000001,0.018631419166922569,
2.9550000000000001,0.067746244370937347,,2.9550000000000001,0.023175081238150597,
2.9575,0.071712933480739594,,2.9575,0.025507014244794846,
2.96,0.079718433320522308,,2.96,0.027838945388793945,
2.9624999999999999,0.083805322647094727,,2.9624999999999999,0.030194919556379318,
2.9649999999999999,0.087964341044425964,,2.9649999999999999,0.035027068108320236,
2.9674999999999998,0.092315673828125,,2.9674999999999998,0.037479203194379807,
2.9700000000000002,0.10181169211864471,,2.9700000000000002,0.039979420602321625,
2.9725000000000001,0.1070525273680687,,2.9725000000000001,0.042503677308559418,
2.9750000000000001,0.11270205676555634,,2.9750000000000001,0.047720473259687424,
2.9775,0.11876027286052704,,2.9775,0.050364933907985687,
2.98,0.13186237215995789,,2.98,0.0530574731528759,
2.9824999999999999,0.13881008327007294,,2.9824999999999999,0.055774055421352386,
2.9849999999999999,0.1459260880947113,,2.9849999999999999,0.061279337853193283,
2.9874999999999998,0.15309016406536102,,2.9874999999999998,0.064068041741847992,
2.9900000000000002,0.16725003719329834,,2.9900000000000002,0.066904827952384949,
2.9925000000000002,0.17407755553722382,,2.9925000000000002,0.069813728332519531,
2.9950000000000001,0.18068870902061462,,2.9950000000000001,0.075920030474662781,
2.9975000000000001,0.18698732554912567,,2.9975000000000001,0.0791655033826828,
3,0.19857487082481384,88.724586486816406,3,0.082579255104064941,93.10345458984375
3.0024999999999999,0.2038397490978241,,3.0024999999999999,0.086185336112976074,
3.0049999999999999,0.20867189764976501,,3.0049999999999999,0.094022557139396667,
3.0074999999999998,0.2130713164806366,,3.0074999999999998,0.09830176830291748,
3.0099999999999998,0.22052387893199921,,3.0099999999999998,0.10282139480113983,
3.0125000000000002,0.22345682978630066,,3.0125000000000002,0.10758142173290253,
3.0150000000000001,0.22583684325218201,,3.0150000000000001,0.11787077039480209,
3.0175000000000001,0.22759179770946503,,3.0175000000000001,0.12335201352834702,
3.02,0.22898614406585693,,3.02,0.12897750735282898,
3.0225,0.22852937877178192,,3.0225,0.13474723696708679,
3.0249999999999999,0.22720715403556824,,3.0249999999999999,0.14640688896179199,
3.0274999999999999,0.22494733333587646,,3.0274999999999999,0.15220066905021667,
3.0299999999999998,0.21735052764415741,,3.0299999999999998,0.15785019099712372,
3.0325000000000002,0.21189332008361816,,3.0325000000000002,0.16333143413066864,
3.0350000000000001,0.20525813102722168,,3.0350000000000001,0.1736207902431488,
3.0375000000000001,0.19744496047496796,,3.0375000000000001,0.17835676670074463,
3.04,0.1783808171749115,,3.04,0.18282830715179443,
3.0425,0.16727408766746521,,3.0425,0.18698732554912567,
3.0449999999999999,0.15530189871788025,,3.0449999999999999,0.1944158524274826,
3.0474999999999999,0.14260849356651306,,3.0474999999999999,0.19763728976249695,
3.0499999999999998,0.11592348664999008,,3.0499999999999998,0.20052215456962585,
3.0525000000000002,0.10234057903289795,,3.0525000000000002,0.20304641127586365,
3.0550000000000002,0.088877879083156586,,3.0550000000000002,0.20684480667114258,
3.0575000000000001,0.075703665614128113,,3.0575000000000001,0.20799875259399414,
3.0600000000000001,0.050821702927350998,,3.0600000000000001,0.20862381160259247,
3.0625,0.039330326020717621,,3.0625,0.20862381160259247,
3.0649999999999999,0.028584202751517296,,3.0649999999999999,0.20646016299724579,
3.0674999999999999,0.018583338707685471,,3.0674999999999999,0.20417630672454834,
3.0699999999999998,0.00093758106231689453,,3.0699999999999998,0.20102700591087341,
3.0724999999999998,-0.0067313513718545437,,3.0724999999999998,0.1969401091337204,
3.0750000000000002,-0.013655027374625206,,3.0750000000000002,0.18578529357910156,
3.0775000000000001,-0.019857486709952354,,3.0775000000000001,0.17869333922863007,
3.0800000000000001,-0.030435323715209961,,3.0800000000000001,0.17059168219566345,
3.0825,-0.034906864166259766,,3.0825,0.16152839362621307,
3.085,-0.03892163559794426,,3.085,0.14085352420806885,
3.0874999999999999,-0.042551755905151367,,3.0874999999999999,0.12943427264690399,
3.0899999999999999,-0.048754215240478516,,3.0899999999999999,0.11753420531749725,
3.0924999999999998,-0.051398675888776779,,3.0924999999999998,0.1052735298871994,
3.0950000000000002,-0.053754650056362152,,3.0950000000000002,0.080511771142482758,
3.0975000000000001,-0.055798094719648361,,3.0975000000000001,0.068395338952541351,
3.1000000000000001,-0.058947406709194183,,3.1000000000000001,0.056663554161787033,
3.1025,-0.060029231011867523,,3.1025,0.045484703034162521,
3.105,-0.060798525810241699,,3.105,0.025218527764081955,
3.1074999999999999,-0.061255298554897308,,3.1074999999999999,0.016275446861982346,
3.1099999999999999,-0.061447620391845703,,3.1099999999999999,0.0081497430801391602,
3.1124999999999998,-0.061279337853193283,,3.1124999999999998,0.00081737840082496405,
3.1150000000000002,-0.06103893369436264,,3.1150000000000002,-0.011563500389456749,
3.1175000000000002,-0.060774486511945724,,3.1175000000000002,-0.01675625704228878,
3.1200000000000001,-0.060437917709350586,,3.1200000000000001,-0.021420121192932129,
3.1225000000000001,-0.060413878411054611,,3.1225000000000001,-0.025579135864973068,
3.125,-0.060510039329528809,,3.125,-0.032791297882795334,
3.1274999999999999,-0.060702364891767502,,3.1274999999999999,-0.035940609872341156,
3.1299999999999999,-0.061351459473371506,,3.1299999999999999,-0.038801431655883789,
3.1324999999999998,-0.061760149896144867,,3.1324999999999998,-0.04137377068400383,
3.1349999999999998,-0.06212075799703598,,3.1349999999999998,-0.045677028596401215,
3.1375000000000002,-0.062481366097927094,,3.1375000000000002,-0.04735986515879631,
3.1400000000000001,-0.062914095818996429,,3.1400000000000001,-0.048754215240478516,
3.1425000000000001,-0.062962174415588379,,3.1425000000000001,-0.049812000244855881,
3.145,-0.06286601722240448,,3.145,-0.051182311028242111,
3.1475,-0.062649652361869812,,3.1475,-0.051591001451015472,
3.1499999999999999,-0.061808228492736816,,3.1499999999999999,-0.05185544490814209,
3.1524999999999999,-0.061255298554897308,,3.1524999999999999,-0.052095852792263031,
3.1549999999999998,-0.060678325593471527,,3.1549999999999998,-0.052576661109924316,
3.1575000000000002,-0.060077309608459473,,3.1575000000000002,-0.05288919061422348,
3.1600000000000001,-0.059067606925964355,,3.1600000000000001,-0.053249798715114594,
3.1625000000000001,-0.058706998825073242,,3.1625000000000001,-0.053682528436183929,
3.165,-0.058466594666242599,,3.165,-0.054523944854736328,
3.1675,-0.058322351425886154,,3.1675,-0.054884552955627441,
3.1699999999999999,-0.058250229805707932,,3.1699999999999999,-0.055173039436340332,
3.1724999999999999,-0.058226190507411957,,3.1724999999999999,-0.055365364998579025,
3.1749999999999998,-0.058202147483825684,,3.1749999999999998,-0.055461525917053223,
3.1775000000000002,-0.058130025863647461,,3.1775000000000002,-0.055389404296875,
3.1800000000000002,-0.057769417762756348,,3.1800000000000002,-0.055269204080104828,
3.1825000000000001,-0.05750497430562973,,3.1825000000000001,-0.055100917816162109,
3.1850000000000001,-0.057192444801330566,,3.1850000000000001,-0.054812431335449219,
3.1875,-0.056879919022321701,,3.1875,-0.054644148796796799,
3.1899999999999999,-0.056326985359191895,,3.1899999999999999,-0.054499905556440353,
3.1924999999999999,-0.0561346635222435,,3.1924999999999999,-0.05430757999420166,
3.1949999999999998,-0.055990420281887054,,3.1949999999999998,-0.053754650056362152,
3.1974999999999998,-0.055918298661708832,,3.1974999999999998,-0.053369998931884766,
3.2000000000000002,-0.055918298661708832,,3.2000000000000002,-0.052865147590637207,
3.2025000000000001,-0.055966377258300781,,3.2025000000000001,-0.052264135330915451,
3.2050000000000001,-0.055990420281887054,,3.2050000000000001,-0.050797663629055023,
3.2075,-0.056014459580183029,,3.2075,-0.049956243485212326,
3.21,-0.055942337960004807,,3.21,-0.049114823341369629,
3.2124999999999999,-0.055846177041530609,,3.2124999999999999,-0.04827340692281723,
3.2149999999999999,-0.055701933801174164,,3.2149999999999999,-0.046734809875488281,
3.2174999999999998,-0.055485568940639496,,3.2174999999999998,-0.046061675995588303,
3.2200000000000002,-0.054932635277509689,,3.2200000000000002,-0.045484703034162521,
3.2225000000000001,-0.054572027176618576,,3.2225000000000001,-0.044979851692914963,
3.2250000000000001,-0.054163336753845215,,3.2250000000000001,-0.044162474572658539,
3.2275,-0.053706567734479904,,3.2275,-0.043801866471767426,
3.23,-0.052672825753688812,,3.23,-0.043441258370876312,
3.2324999999999999,-0.05214393138885498,,3.2324999999999999,-0.043008528649806976,
3.2349999999999999,-0.051639080047607422,,3.2349999999999999,-0.041926704347133636,
3.2374999999999998,-0.051182311028242111,,3.2374999999999998,-0.04120548814535141,
3.2400000000000002,-0.050509177148342133,,3.2400000000000002,-0.040364068001508713,
3.2425000000000002,-0.050316851586103439,,3.2425000000000002,-0.039402447640895844,
3.2450000000000001,-0.050220690667629242,,3.2450000000000001,-0.037286877632141113,
3.2475000000000001,-0.050172608345746994,,3.2475000000000001,-0.036181014031171799,
3.25,-0.050124526023864746,,3.25,-0.035099189728498459,
3.2524999999999999,-0.050028365105390549,,3.2524999999999999,-0.034089487046003342,
3.2549999999999999,-0.049860082566738129,,3.2549999999999999,-0.032334528863430023,
3.2574999999999998,-0.049547553062438965,,3.2574999999999998,-0.031613312661647797,
3.2599999999999998,-0.048585932701826096,,3.2599999999999998,-0.030988257378339767,
3.2625000000000002,-0.047936838120222092,,3.2625000000000002,-0.030483406037092209,
3.2650000000000001,-0.047215621918439865,,3.2650000000000001,-0.029666027054190636,
3.2675000000000001,-0.046494405716657639,,3.2675000000000001,-0.029353499412536621,
3.27,-0.04507601261138916,,3.27,-0.02906501293182373,
3.2725,-0.044475000351667404,,3.2725,-0.028800567612051964,
3.2749999999999999,-0.043946109712123871,,3.2749999999999999,-0.028319757431745529,
3.2774999999999999,-0.04353741928935051,,3.2774999999999999,-0.028127431869506836,
3.2799999999999998,-0.042984485626220703,,3.2799999999999998,-0.027959149330854416,
3.2825000000000002,-0.042816203087568283,,3.2825000000000002,-0.027862986549735069,
3.2850000000000001,-0.042720042169094086,,3.2850000000000001,-0.027911067008972168,
3.2875000000000001,-0.04262387752532959,,3.2875000000000001,-0.028031270951032639,
3.29,-0.04245559498667717,,3.29,-0.028223594650626183,
3.2925,-0.042311351746320724,,3.2925,-0.028464000672101974,
3.2949999999999999,-0.042119026184082031,,3.2949999999999999,-0.028848648071289062,
3.2974999999999999,-0.041854582726955414,,3.2974999999999999,-0.028920769691467285,
3.2999999999999998,-0.041061244904994965,,3.2999999999999998,-0.028848648071289062,
3.3025000000000002,-0.040532350540161133,,3.3025000000000002,-0.028584202751517296,
3.3050000000000002,-0.039931338280439377,,3.3050000000000002,-0.027430256828665733,
3.3075000000000001,-0.039258204400539398,,3.3075000000000001,-0.026516716927289963,
3.3100000000000001,-0.037935972213745117,,3.3100000000000001,-0.025386810302734375,
3.3125,-0.037334959954023361,,3.3125,-0.024112662300467491,
3.3149999999999999,-0.036854147911071777,,3.3149999999999999,-0.021227797493338585,
3.3174999999999999,-0.036469500511884689,,3.3174999999999999,-0.019713243469595909,
3.3199999999999998,-0.036181014031171799,,3.3199999999999998,-0.018246769905090332,
3.3224999999999998,-0.036229096353054047,,3.3224999999999998,-0.016852419823408127,
3.3250000000000002,-0.036349296569824219,,3.3250000000000002,-0.014520486816763878,
3.3275000000000001,-0.036541622132062912,,3.3275000000000001,-0.013679067604243755,
3.3300000000000001,-0.036950312554836273,,3.3300000000000001,-0.013102094642817974,
3.3325,-0.037118595093488693,,3.3325,-0.012837648391723633,
3.335,-0.037214756011962891,,3.335,-0.013270378112792969,
3.3374999999999999,-0.037238799035549164,,3.3374999999999999,-0.013967554084956646,
3.3399999999999999,-0.037166677415370941,,3.3399999999999999,-0.01490513514727354,
3.3424999999999998,-0.037046473473310471,,3.3424999999999998,-0.01601099967956543,
3.3450000000000002,-0.03692626953125,,3.3450000000000002,-0.018078487366437912,
3.3475000000000001,-0.03675798699259758,,3.3475000000000001,-0.018655460327863693,
3.3500000000000001,-0.036325257271528244,,3.3500000000000001,-0.018631419166922569,
3.3525,-0.036012731492519379,,3.3525,-0.017790000885725021,
3.355,-0.035652123391628265,,3.355,-0.013078054413199425,
3.3574999999999999,-0.035195350646972656,,3.3574999999999999,-0.009135405533015728,
3.3599999999999999,-0.034161608666181564,,3.3599999999999999,-0.0042551755905151367,
3.3624999999999998,-0.033584635704755783,,3.3624999999999998,0.0012981891632080078,
3.3650000000000002,-0.033031702041625977,,3.3650000000000002,0.012933811172842979,
3.3675000000000002,-0.032526850700378418,,3.3675000000000002,0.018150608986616135,
3.3700000000000001,-0.031709473580121994,,3.3700000000000001,0.022309621796011925,
3.3725000000000001,-0.031445026397705078,,3.3725000000000001,0.02507428452372551,
3.375,-0.031300783157348633,,3.375,0.025458931922912598,
3.3774999999999999,-0.031204622238874435,,3.3774999999999999,0.022982757538557053,
3.3799999999999999,-0.031108459457755089,,3.3799999999999999,0.01891990564763546,
3.3824999999999998,-0.030988257378339767,,3.3824999999999998,0.013582905754446983,
3.3849999999999998,-0.030747851356863976,,3.3849999999999998,0.00067313516046851873,
3.3875000000000002,-0.03031512163579464,,3.3875000000000002,-0.0060582160949707031,
3.3900000000000001,-0.028656324371695518,,3.3900000000000001,-0.01245300006121397,
3.3925000000000001,-0.027382176369428635,,3.3925000000000001,-0.018270811066031456,
3.395,-0.025843581184744835,,3.395,-0.027622580528259277,
3.3975,-0.024040540680289268,,3.3975,-0.031180581077933311,
3.3999999999999999,-0.019977688789367676,,3.3999999999999999,-0.034113526344299316,
3.4024999999999999,-0.017934244126081467,,3.4024999999999999,-0.036613743752241135,
3.4049999999999998,-0.01601099967956543,,3.4049999999999998,-0.040892958641052246,
3.4075000000000002,-0.014328162185847759,,3.4075000000000002,-0.042888324707746506,
3.4100000000000001,-0.012068351730704308,,3.4100000000000001,-0.044835608452558517,
3.4125000000000001,-0.011611580848693848,,3.4125000000000001,-0.046614609658718109,
3.415,-0.011611580848693848,,3.415,-0.049090784043073654,
3.4175,-0.012068351730704308,,3.4175,-0.04935523122549057,
3.4199999999999999,-0.014063715934753418,,3.4199999999999999,-0.048706136643886566,
3.4224999999999999,-0.015337864868342876,,3.4224999999999999,-0.047047339379787445,
3.4249999999999998,-0.016612013801932335,,3.4249999999999998,-0.041085284203290939,
3.4275000000000002,-0.017693838104605675,,3.4275000000000002,-0.037407081574201584,
3.4300000000000002,-0.018391013145446777,,3.4300000000000002,-0.034041404724121094,
3.4325000000000001,-0.017621716484427452,,3.4325000000000001,-0.031757555902004242,
3.4350000000000001,-0.015866756439208984,,3.4350000000000001,-0.034161608666181564,
3.4375,-0.013029973022639751,,3.4375,-0.040532350540161133,
3.4399999999999999,-0.0040628514252603054,,3.4399999999999999,-0.051182311028242111,
3.4424999999999999,0.0018511216621845961,,3.4424999999999999,-0.066279768943786621,
3.4449999999999998,0.0084382295608520508,,3.4449999999999998,-0.10791798681020737,
3.4474999999999998,0.015313824638724327,,3.4474999999999998,-0.13203065097332001,
3.4500000000000002,0.028295716270804405,,3.4500000000000002,-0.15578269958496094,
3.4525000000000001,0.033488474786281586,,3.4525000000000001,-0.17657777667045593,
3.4550000000000001,0.037286877632141113,,3.4550000000000001,-0.19751708209514618,
3.4575,0.039354365319013596,,3.4575,-0.19169926643371582,
3.46,0.037863850593566895,,3.46,-0.17140905559062958,
3.4624999999999999,0.034353934228420258,,3.4624999999999999,-0.13477127254009247,
3.4649999999999999,0.029257338494062424,,3.4649999999999999,-0.0092315673828125,
3.4674999999999998,0.022958716377615929,,3.4674999999999998,0.078203879296779633,
3.4700000000000002,0.0083420677110552788,,3.4700000000000002,0.17881354689598083,
3.4725000000000001,0.0008895000210031867,,3.4725000000000001,0.2885105311870575,
3.4750000000000001,-0.0062024593353271484,,3.4750000000000001,0.51280879974365234,
3.4775,-0.012621283531188965,,3.4775,0.61425983905792236,
3.48,-0.022934675216674805,,3.48,0.69948357343673706,
3.4824999999999999,-0.026829242706298828,,3.4824999999999999,0.76220536231994629,
3.4849999999999999,-0.029954513534903526,,3.4849999999999999,0.80170392990112305,
3.4874999999999998,-0.032502811402082443,,3.4874999999999998,0.77398520708084106,
3.4900000000000002,-0.036373339593410492,,3.4900000000000002,0.71542245149612427,
3.4925000000000002,-0.037887893617153168,,3.4925000000000002,0.62959772348403931,
3.4950000000000001,-0.039186082780361176,,3.4950000000000001,0.40046733617782593,
3.4975000000000001,-0.040147703140974045,,3.4975000000000001,0.27261972427368164,
3.5,-0.04046022891998291,,3.5,0.1469598263502121,
3.5024999999999999,-0.039498608559370041,,3.5024999999999999,0.031084418296813965,
3.5049999999999999,-0.037623446434736252,,3.5049999999999999,-0.14818589389324188,
3.5074999999999998,-0.034906864166259766,,3.5074999999999998,-0.20508985221385956,
3.5099999999999998,-0.028175514191389084,,3.5099999999999998,-0.23946782946586609,
3.5125000000000002,-0.025314688682556152,,3.5125000000000002,-0.25326710939407349,
3.5150000000000001,-0.023848216980695724,,3.5150000000000001,-0.23391446471214294,
3.5175000000000001,-0.024761756882071495,,3.5175000000000001,-0.20982584357261658,
3.52,-0.037310920655727386,,3.52,-0.18208305537700653,
3.5225,-0.050196647644042969,,3.5225,-0.15438835322856903,
3.5249999999999999,-0.067746244370937347,,3.5249999999999999,-0.10887961089611053,
3.5274999999999999,-0.089430809020996094,,3.5274999999999999,-0.093205176293849945,
3.5299999999999998,-0.14049291610717773,,3.5299999999999998,-0.082194611430168152,
3.5325000000000002,-0.16599993407726288,,3.5325000000000002,-0.074982449412345886,
3.5350000000000001,-0.18809318542480469,,3.5350000000000001,-0.067385636270046234,
3.5375000000000001,-0.20376762747764587,,3.5375000000000001,-0.064885422587394714,
3.54,-0.20335893332958221,,3.54,-0.062265001237392426,
3.5425,-0.18150608241558075,,3.5425,-0.059115689247846603,
3.5449999999999999,-0.1421036422252655,,3.5449999999999999,-0.051254432648420334,
3.5474999999999999,-0.083829365670681,,3.5474999999999999,-0.046951174736022949,
3.5499999999999998,0.08873363584280014,,3.5499999999999998,-0.042768120765686035,
3.5525000000000002,0.19932012259960175,,3.5525000000000002,-0.038945674896240234,
3.5550000000000002,0.32106143236160278,,3.5550000000000002,-0.032791297882795334,
3.5575000000000001,0.44835609197616577,,3.5575000000000001,-0.030435323715209961,
3.5600000000000001,0.69162231683731079,,3.5600000000000001,-0.028439959511160851,
3.5625,0.79225599765777588,,3.5625,-0.026684999465942383,
3.5649999999999999,0.86901748180389404,,3.5649999999999999,-0.023319324478507042,
3.5674999999999999,0.91587245464324951,,3.5674999999999999,-0.021564364433288574,
3.5699999999999998,0.90546292066574097,,3.5699999999999998,-0.019689202308654785,
3.5724999999999998,0.84738099575042725,,3.5724999999999998,-0.017717879265546799,
3.5750000000000002,0.75804632902145386,,3.5750000000000002,-0.01353482436388731,
3.5775000000000001,0.64356529712677002,,3.5775000000000001,-0.01139521598815918,
3.5800000000000001,0.37233990430831909,,3.5800000000000001,-0.0092315673828125,
3.5825,0.23398658633232117,,3.5825,-0.007043878547847271,
3.585,0.10551393032073975,,3.585,-0.0026684999465942383,
3.5874999999999999,-0.0060341758653521538,,3.5874999999999999,-0.00043272972106933594,
3.5899999999999999,-0.16119182109832764,,3.5899999999999999,0.0018270810833200812,
3.5924999999999998,-0.20220498740673065,,3.5924999999999998,0.0041830539703369141,
3.5950000000000002,-0.22095660865306854,,3.5950000000000002,0.0090632839128375053,
3.5975000000000001,-0.22122105956077576,,3.5975000000000001,0.011635622009634972,
3.6000000000000001,-0.18559297919273376,,3.6000000000000001,0.014256040565669537,
3.6025,-0.15958110988140106,,3.6025,0.016924541443586349,
3.605,-0.13368944823741913,,3.605,0.022309621796011925,
3.6074999999999999,-0.11077880859375,,3.6074999999999999,0.024978121742606163,
3.6099999999999999,-0.07950206845998764,,3.6099999999999999,0.027622580528259277,
3.6124999999999998,-0.071232125163078308,,3.6124999999999998,0.030194919556379318,
3.6150000000000002,-0.06673654168844223,,3.6150000000000002,0.035267472267150879,
3.6175000000000002,-0.064669057726860046,,3.6175000000000002,0.037767689675092697,
3.6200000000000001,-0.062601566314697266,,3.6200000000000001,0.040315985679626465,
3.6225000000000001,-0.060702364891767502,,3.6225000000000001,0.042960446327924728,
3.625,-0.05755305290222168,,3.625,0.048634015023708344,
3.6274999999999999,-0.053177677094936371,,3.6274999999999999,0.051783323287963867,
3.6299999999999999,-0.041830539703369141,,3.6299999999999999,0.055173039436340332,
3.6324999999999998,-0.035796366631984711,,3.6324999999999998,0.058851242065429688,
3.6349999999999998,-0.030122797936201096,,3.6349999999999998,0.067025028169155121,
3.6375000000000002,-0.025146406143903732,,3.6375000000000002,0.071520611643791199,
3.6400000000000001,-0.017790000885725021,,3.6400000000000001,0.076232552528381348,
3.6425000000000001,-0.015409986488521099,,3.6425000000000001,0.081160865724086761,
3.645,-0.013679067604243755,,3.645,0.091498300433158875,
3.6475,-0.012380878441035748,,3.6475,0.096859335899353027,
3.6499999999999999,-0.010433594696223736,,3.6499999999999999,0.10231654345989227,
3.6524999999999999,-0.0094719734042882919,,3.6524999999999999,0.10784586519002914,
3.6549999999999998,-0.0083661079406738281,,3.6549999999999998,0.1191689595580101,
3.6575000000000002,-0.007091959472745657,,3.6575000000000002,0.12493868917226791,
3.6600000000000001,-0.0040868921205401421,,3.6600000000000001,0.130732461810112,
3.6625000000000001,-0.0023800134658813477,,3.6625000000000001,0.13655027747154236,
3.665,-0.00052889192011207342,,3.665,0.14794549345970154,
3.6675,0.0014183919411152601,,3.6675,0.15340268611907959,
3.6699999999999999,0.0056495270691812038,,3.6699999999999999,0.15859544277191162,
3.6724999999999999,0.0078852977603673935,,3.6724999999999999,0.16345164179801941,
3.6749999999999998,0.010193189606070518,,3.6749999999999998,0.17196199297904968,
3.6775000000000002,0.012525121681392193,,3.6775000000000002,0.17554402351379395,
3.6800000000000002,0.017140906304121017,,3.6800000000000002,0.17866930365562439,
3.6825000000000001,0.019352635368704796,,3.6825000000000001,0.18138587474822998,
3.6850000000000001,0.021492242813110352,,3.6850000000000001,0.18571317195892334,
3.6875,0.02353568933904171,,3.6875,0.18742005527019501,
3.6899999999999999,0.027454297989606857,,3.6899999999999999,0.18883845210075378,
3.6924999999999999,0.029425621032714844,,3.6924999999999999,0.18999239802360535,
3.6949999999999998,0.031469069421291351,,3.6949999999999998,0.19119441509246826,
3.6974999999999998,0.033632718026638031,,3.6974999999999998,0.19109825789928436,
3.7000000000000002,0.038512945175170898,,3.7000000000000002,0.19032895565032959,
3.7025000000000001,0.041277609765529633,,3.7025000000000001,0.18876633048057556,
3.7050000000000001,0.044234596192836761,,3.7050000000000001,0.18263599276542664,
3.7075,0.047407947480678558,,3.7075,0.17780384421348572,
3.71,0.054211419075727463,,3.71,0.17174562811851501,
3.7124999999999999,0.05784153938293457,,3.7124999999999999,0.1643892228603363,
3.7149999999999999,0.061543785035610199,,3.7149999999999999,0.14616648852825165,
3.7174999999999998,0.065366230905056,,3.7174999999999998,0.13556461036205292,
3.7200000000000002,0.073275566101074219,,3.7200000000000002,0.12416939437389374,
3.7225000000000001,0.077410541474819183,,3.7225000000000001,0.11222124099731445,
3.7250000000000001,0.081689760088920593,,3.7250000000000001,0.087531611323356628,
3.7275,0.086137257516384125,,3.7275,0.07522284984588623,
3.73,0.095705389976501465,,3.73,0.063178539276123047,
3.7324999999999999,0.10087411105632782,,3.7324999999999999,0.051566958427429199,
3.7349999999999999,0.10635535418987274,,3.7349999999999999,0.030002593994140625,
3.7374999999999998,0.11210104078054428,,3.7374999999999998,0.020170014351606369,
3.7400000000000002,0.12440979480743408,,3.7400000000000002,0.011034607887268066,
3.7425000000000002,0.13090074062347412,,3.7425000000000002,0.002524256706237793,
3.7450000000000001,0.13753592967987061,,3.7450000000000001,-0.012573203071951866,
3.7475000000000001,0.14424324035644531,,3.7475000000000001,-0.019232433289289474,
3.75,0.15760979056358337,,3.75,-0.025338729843497276,
3.7524999999999999,0.16407668590545654,,3.7524999999999999,-0.030916135758161545,
3.7549999999999999,0.17032723128795624,,3.7549999999999999,-0.040556393563747406,
3.7574999999999998,0.17628929018974304,,3.7574999999999998,-0.044619243592023849,
3.7599999999999998,0.18708348274230957,,3.7599999999999998,-0.048201285302639008,
3.7625000000000002,0.19189159572124481,,3.7625000000000002,-0.051302514970302582,
3.7650000000000001,0.19629101455211639,,3.7650000000000001,-0.056254863739013672,
3.7675000000000001,0.20025770366191864,,3.7675000000000001,-0.058105986565351486,
3.77,0.20701310038566589,,3.77,-0.059644579887390137,
3.7725,0.20977775752544403,,3.7725,-0.060846608132123947,
3.7749999999999999,0.2121337354183197,,3.7749999999999999,-0.062481366097927094,
3.7774999999999999,0.21400889754295349,,3.7774999999999999,-0.062938138842582703,
3.7799999999999998,0.2161484956741333,,3.7799999999999998,-0.06325066089630127,
3.7825000000000002,0.21619658172130585,,3.7825000000000002,-0.063418947160243988,
3.7850000000000001,0.2154032438993454,,3.7850000000000001,-0.063491068780422211,
3.7875000000000001,0.21369636058807373,,3.7875000000000001,-0.063491068780422211,
3.79,0.20703713595867157,,3.79,-0.063515111804008484,
3.7925,0.20196458697319031,,3.7925,-0.063563190400600433,
3.7949999999999999,0.19569000601768494,,3.7949999999999999,-0.063779555261135101,
3.7974999999999999,0.18821339309215546,,3.7974999999999999,-0.063899755477905273,
3.7999999999999998,0.16994258761405945,,3.7999999999999998,-0.063995920121669769,
3.8025000000000002,0.15938878059387207,,3.8025000000000002,-0.064019963145256042,
3.8050000000000002,0.14808973670005798,,3.8050000000000002,-0.063755512237548828,
3.8075000000000001,0.13621370494365692,,3.8075000000000001,-0.063442990183830261,
3.8100000000000001,0.11147598922252655,,3.8100000000000001,-0.063010260462760925,
3.8125,0.099022984504699707,,3.8125,-0.062505409121513367,
3.8149999999999999,0.086690187454223633,,3.8149999999999999,-0.061423581093549728,
3.8174999999999999,0.074669919908046722,,3.8174999999999999,-0.060966812074184418,
3.8199999999999998,0.051951609551906586,,3.8199999999999998,-0.060582160949707031,
3.8224999999999998,0.041421853005886078,,3.8224999999999998,-0.060341756790876389,
3.8250000000000002,0.031493108719587326,,3.8250000000000002,-0.060149431228637695,
3.8275000000000001,0.022213459014892578,,3.8275000000000001,-0.060149431228637695,
3.8300000000000001,0.0054331622086465359,,3.8300000000000001,-0.060173474252223969,
3.8325,-0.002067486522719264,,3.8325,-0.060125391930341721,
3.835,-0.009039243683218956,,3.835,-0.059716701507568359,
3.8374999999999999,-0.015506148338317871,,3.8374999999999999,-0.059332054108381271,
3.8399999999999999,-0.027045607566833496,,3.8399999999999999,-0.058803163468837738,
3.8424999999999998,-0.032166242599487305,,3.8424999999999998,-0.058154068887233734,
3.8450000000000002,-0.036878190934658051,,3.8450000000000002,-0.056711636483669281,
3.8475000000000001,-0.041181445121765137,,3.8475000000000001,-0.055990420281887054,
3.8500000000000001,-0.048513811081647873,,3.8500000000000001,-0.055269204080104828,
3.8525,-0.051542919129133224,,3.8525,-0.054596066474914551,
3.855,-0.054115258157253265,,3.855,-0.053321920335292816,
3.8574999999999999,-0.056278906762599945,,3.8574999999999999,-0.052720904350280762,
3.8599999999999999,-0.059356093406677246,,3.8599999999999999,-0.052119892090559006,
3.8624999999999998,-0.060341756790876389,,3.8624999999999998,-0.051494836807250977,
3.8650000000000002,-0.061062972992658615,,3.8650000000000002,-0.050220690667629242,
3.8675000000000002,-0.061543785035610199,,3.8675000000000002,-0.049571596086025238,
3.8700000000000001,-0.062096714973449707,,3.8700000000000001,-0.048922501504421234,
3.8725000000000001,-0.062313079833984375,,3.8725000000000001,-0.04832148551940918,
3.875,-0.062577530741691589,,3.875,-0.04719158262014389,
3.8774999999999999,-0.062890052795410156,,3.8774999999999999,-0.046686731278896332,
3.8799999999999999,-0.063779555261135101,,3.8799999999999999,-0.046205919235944748,
3.8824999999999998,-0.064332485198974609,,3.8824999999999998,-0.045725107192993164,
3.8849999999999998,-0.064933501183986664,,3.8849999999999998,-0.04478752613067627,
3.8875000000000002,-0.065510474145412445,,3.8875000000000002,-0.044282674789428711,
3.8900000000000001,-0.066520176827907562,,3.8900000000000001,-0.043777823448181152,
3.8925000000000001,-0.066928863525390625,,3.8925000000000001,-0.043248932808637619,
3.895,-0.067241393029689789,,3.895,-0.042167108505964279,
3.8975,-0.067505836486816406,,3.8975,-0.041614174842834473,
3.8999999999999999,-0.067842409014701843,,3.8999999999999999,-0.041061244904994965,
3.9024999999999999,-0.067938566207885742,,3.9024999999999999,-0.040532350540161133,
3.9049999999999998,-0.068034730851650238,,3.9049999999999998,-0.039594769477844238,
3.9075000000000002,-0.068082809448242188,,3.9075000000000002,-0.039186082780361176,
3.9100000000000001,-0.067986652255058289,,3.9100000000000001,-0.038825474679470062,
3.9125000000000001,-0.06781836599111557,,3.9125000000000001,-0.038561027497053146,
3.915,-0.067553922533988953,,3.915,-0.038224458694458008,
3.9175,-0.067169271409511566,,3.9175,-0.038200419396162033,
3.9199999999999999,-0.066159568727016449,,3.9199999999999999,-0.038272541016340256,
3.9224999999999999,-0.065606638789176941,,3.9224999999999999,-0.038440823554992676,
