Data Set 1:Time(s),Data Set 1:EKG(mV),Data Set 1:Heart Rate(bpm)
0,-0.064452692866325378,93.02325439453125
0.0025000000000000001,-0.069453120231628418,
0.0050000000000000001,-0.073828503489494324,
0.0074999999999999997,-0.077602863311767578,
0.01,-0.080848336219787598,
0.012500000000000001,-0.083661079406738281,
0.014999999999999999,-0.090825162827968597,
0.017500000000000002,-0.093229219317436218,
0.02,-0.095729433000087738,
0.022499999999999999,-0.098349854350090027,
0.025000000000000001,-0.10351856797933578,
0.0275,-0.10575433820486069,
0.029999999999999999,-0.10753333568572998,
0.032500000000000001,-0.10871132463216782,
0.035000000000000003,-0.10902385413646698,
0.037499999999999999,-0.10823051631450653,
0.040000000000000001,-0.1069563627243042,
0.042500000000000003,-0.10544180870056152,
0.044999999999999998,-0.102292500436306,
0.047500000000000001,-0.10104238986968994,
0.050000000000000003,-0.10012885183095932,
0.052499999999999998,-0.099599957466125488,
0.055,-0.09938359260559082,
0.057500000000000002,-0.099575921893119812,
0.059999999999999998,-0.099840365350246429,
0.0625,-0.10010480880737305,
0.065000000000000002,-0.10041733831167221,
0.067500000000000004,-0.10046541690826416,
0.070000000000000007,-0.10044138133525848,
0.072499999999999995,-0.10029713809490204,
0.074999999999999997,-0.09979228675365448,
0.077499999999999999,-0.099359557032585144,
0.080000000000000002,-0.098830662667751312,
0.082500000000000004,-0.098157525062561035,
0.085000000000000006,-0.096618935465812683,
0.087499999999999994,-0.09584963321685791,
0.089999999999999997,-0.095152460038661957,
0.092499999999999999,-0.094575487077236176,
0.095000000000000001,-0.093950435519218445,
0.097500000000000003,-0.093830227851867676,
0.10000000000000001,-0.093734070658683777,
0.10249999999999999,-0.093589827418327332,
0.105,-0.092628203332424164,
0.1075,-0.09164254367351532,
0.11,-0.090224146842956543,
0.1125,-0.088373027741909027,
0.115,-0.083372592926025391,
0.11749999999999999,-0.080343484878540039,
0.12,-0.077073976397514343,
0.1225,-0.073636174201965332,
0.125,-0.066664420068264008,
0.1275,-0.063322782516479492,
0.13,-0.060269635170698166,
0.13250000000000001,-0.057601135224103928,
0.13500000000000001,-0.053946971893310547,
0.13750000000000001,-0.053129594773054123,
0.14000000000000001,-0.053105555474758148,
0.14249999999999999,-0.053850810974836349,
0.14499999999999999,-0.057336688041687012,
0.14749999999999999,-0.059788823127746582,
0.14999999999999999,-0.062409244477748871,
0.1525,-0.064957544207572937,
0.155,-0.068876147270202637,
0.1575,-0.069909892976284027,
0.16,-0.070174336433410645,
0.16250000000000001,-0.069693528115749359,
0.16500000000000001,-0.066976949572563171,
0.16750000000000001,-0.065077744424343109,
0.17000000000000001,-0.063082382082939148,
0.17249999999999999,-0.061135094612836838,
0.17499999999999999,-0.057817500084638596,
0.17749999999999999,-0.05647122859954834,
0.17999999999999999,-0.05522112175822258,
0.1825,-0.053995054215192795,
0.185,-0.051182311028242111,
0.1875,-0.049499474465847015,
0.19,-0.047648351639509201,
0.1925,-0.045773189514875412,
0.19500000000000001,-0.042527716606855392,
0.19750000000000001,-0.041469931602478027,
0.20000000000000001,-0.040941040962934494,
0.20250000000000001,-0.040965080261230469,
0.20499999999999999,-0.042215190827846527,
0.20749999999999999,-0.043080650269985199,
0.20999999999999999,-0.043729744851589203,
0.21249999999999999,-0.043922066688537598,
0.215,-0.042143069207668304,
0.2175,-0.040027499198913574,
0.22,-0.037190716713666916,
0.2225,-0.033776961266994476,
0.22500000000000001,-0.026348432525992393,
0.22750000000000001,-0.022838514298200607,
0.23000000000000001,-0.019761323928833008,
0.23250000000000001,-0.01721302792429924,
0.23499999999999999,-0.013895432464778423,
0.23749999999999999,-0.013054013252258301,
0.23999999999999999,-0.012645324692130089,
0.24249999999999999,-0.012597243301570415,
0.245,-0.01322229765355587,
0.2475,-0.013799270614981651,
0.25,-0.014520486816763878,
0.2525,-0.015289783477783203,
0.255,-0.016443729400634766,
0.25750000000000001,-0.016443729400634766,
0.26000000000000001,-0.015794634819030762,
0.26250000000000001,-0.014256040565669537,
0.26500000000000001,-0.0079333782196044922,
0.26750000000000002,-0.0030531487427651882,
0.27000000000000002,0.0027887027245014906,
0.27250000000000002,0.0093758106231689453,
0.27500000000000002,0.023343365639448166,
0.27750000000000002,0.029930472373962402,
0.28000000000000003,0.035748284310102463,
0.28249999999999997,0.04046022891998291,
0.28499999999999998,0.045725107192993164,
0.28749999999999998,0.046133797615766525,
0.28999999999999998,0.045051973313093185,
0.29249999999999998,0.042599838227033615,
0.29499999999999998,0.03430585190653801,
0.29749999999999999,0.028872689232230186,
0.29999999999999999,0.02291063591837883,
0.30249999999999999,0.016660094261169434,
0.30499999999999999,0.00430325698107481,
0.3075,-0.0013222297420725226,
0.31,-0.0063467025756835938,
0.3125,-0.010625919327139854,
0.315,-0.016708176583051682,
0.3175,-0.018535256385803223,
0.32000000000000001,-0.019593041390180588,
0.32250000000000001,-0.019953649491071701,
0.32500000000000001,-0.018631419166922569,
0.32750000000000001,-0.016876459121704102,
0.33000000000000002,-0.01430412195622921,
0.33250000000000002,-0.010842284187674522,
0.33500000000000002,-0.0015385946026071906,
0.33750000000000002,0.0037743649445474148,
0.34000000000000002,0.0088469190523028374,
0.34250000000000003,0.012861689552664757,
0.34499999999999997,0.013991594314575195,
0.34749999999999998,0.009255608543753624,
0.34999999999999998,2.4040540665737353e-05,
0.35249999999999998,-0.013919472694396973,
0.35499999999999998,-0.054451823234558105,
0.35749999999999998,-0.078684687614440918,
0.35999999999999999,-0.10306179523468018,
0.36249999999999999,-0.12508293986320496,
0.36499999999999999,-0.15046975016593933,
0.36749999999999999,-0.14796952903270721,
0.37,-0.13186237215995789,
0.3725,-0.10012885183095932,
0.375,0.014063715934753418,
0.3775,0.095705389976501465,
0.38,0.19119441509246826,
0.38250000000000001,0.29697281122207642,
0.38500000000000001,0.51937186717987061,
0.38750000000000001,0.62382799386978149,
0.39000000000000001,0.71494162082672119,
0.39250000000000002,0.78634202480316162,
0.39500000000000002,0.84956866502761841,
0.39750000000000002,0.83528858423233032,
0.40000000000000002,0.78990006446838379,
0.40250000000000002,0.71592730283737183,
0.40500000000000003,0.50312042236328125,
0.40749999999999997,0.37873467803001404,
0.40999999999999998,0.25333923101425171,
0.41249999999999998,0.13498763740062714,
0.41499999999999998,-0.054211419075727463,
0.41749999999999998,-0.11657258123159409,
0.41999999999999998,-0.15544614195823669,
0.42249999999999999,-0.17208218574523926,
0.42499999999999999,-0.15241703391075134,
0.42749999999999999,-0.12556374073028564,
0.42999999999999999,-0.094166800379753113,
0.4325,-0.062769852578639984,
0.435,-0.013078054413199425,
0.4375,0.0019232432823628187,
0.44,0.010145108215510845,
0.4425,0.012789567932486534,
0.44500000000000001,0.0082459058612585068,
0.44750000000000001,0.0049042701721191406,
0.45000000000000001,0.0028848648071289062,
0.45250000000000001,0.0031252703629434109,
0.45500000000000002,0.011202892288565636,
0.45750000000000002,0.018174648284912109,
0.46000000000000002,0.026035904884338379,
0.46250000000000002,0.033849082887172699,
0.46500000000000002,0.046494405716657639,
0.46750000000000003,0.050629377365112305,
0.46999999999999997,0.053345959633588791,
0.47249999999999998,0.055100917816162109,
0.47499999999999998,0.058154068887233734,
0.47749999999999998,0.060702364891767502,
0.47999999999999998,0.064452692866325378,
0.48249999999999998,0.069549284875392914,
0.48499999999999999,0.08274754136800766,
0.48749999999999999,0.089791417121887207,
0.48999999999999999,0.096234284341335297,
0.49249999999999999,0.10140299797058105,
0.495,0.10613898932933807,
0.4975,0.10544180870056152,
0.5,0.10296563804149628,
0.50249999999999995,0.099215313792228699,
0.505,0.090464554727077484,
0.50749999999999995,0.086762309074401855,
0.51000000000000001,0.084238052368164062,
0.51249999999999996,0.083156228065490723,
0.51500000000000001,0.085632406175136566,
0.51749999999999996,0.088853836059570312,
0.52000000000000002,0.092964768409729004,
0.52249999999999996,0.097604595124721527,
0.52500000000000002,0.10719677060842514,
0.52749999999999997,0.11171638965606689,
0.53000000000000003,0.11597156524658203,
0.53249999999999997,0.11993825435638428,
0.53500000000000003,0.12751102447509766,
0.53749999999999998,0.13135752081871033,
0.54000000000000004,0.1353963315486908,
0.54249999999999998,0.13972362875938416,
0.54500000000000004,0.14926771819591522,
0.54749999999999999,0.15443643927574158,
0.55000000000000004,0.15977343916893005,
0.55249999999999999,0.16523063182830811,
0.55500000000000005,0.17628929018974304,
0.5575,0.18184265494346619,
0.56000000000000005,0.18739601969718933,
0.5625,0.19294938445091248,
0.56499999999999995,0.20408014953136444,
0.5675,0.20958542823791504,
0.56999999999999995,0.21492242813110352,
0.57250000000000001,0.21999499201774597,
0.57499999999999996,0.22879382967948914,
0.57750000000000001,0.2322797030210495,
0.57999999999999996,0.23511648178100586,
0.58250000000000002,0.23732821643352509,
0.58499999999999996,0.24045348167419434,
0.58750000000000002,0.24187187850475311,
0.58999999999999997,0.24355471134185791,
0.59250000000000003,0.24576644599437714,
0.59499999999999997,0.25232952833175659,
0.59750000000000003,0.25663277506828308,
0.59999999999999998,0.2612726092338562,
0.60250000000000004,0.26588839292526245,
0.60499999999999998,0.27314862608909607,
0.60750000000000004,0.27480742335319519,
0.60999999999999999,0.27468723058700562,
0.61250000000000004,0.27254760265350342,
0.61499999999999999,0.26245057582855225,
0.61750000000000005,0.25490185618400574,
0.62,0.24612705409526825,
0.62250000000000005,0.23648679256439209,
0.625,0.21583597362041473,
0.62749999999999995,0.2051379382610321,
0.63,0.19422352313995361,
0.63249999999999995,0.18299660086631775,
0.63500000000000001,0.1591724157333374,
0.63749999999999996,0.14647901058197021,
0.64000000000000001,0.13340096175670624,
0.64249999999999996,0.12020270526409149,
0.64500000000000002,0.095272660255432129,
0.64749999999999996,0.0845746248960495,
0.65000000000000002,0.075751744210720062,
0.65249999999999997,0.069164633750915527,
0.65500000000000003,0.06320258229970932,
0.65749999999999997,0.063418947160243988,
0.66000000000000003,0.065125823020935059,
0.66249999999999998,0.067602001130580902,
0.66500000000000004,0.07168889045715332,
0.66749999999999998,0.071881219744682312,
0.67000000000000004,0.070174336433410645,
0.67249999999999999,0.06644805520772934,
0.67500000000000004,0.053634446114301682,
0.67749999999999999,0.045556824654340744,
0.68000000000000005,0.037238799035549164,
0.6825,0.029449662193655968,
0.68500000000000005,0.017549594864249229,
0.6875,0.014039675705134869,
0.68999999999999995,0.01214047335088253,
0.6925,0.011539459228515625,
0.69499999999999995,0.012332797050476074,
0.69750000000000001,0.012741486541926861,
0.69999999999999996,0.012597243301570415,
0.70250000000000001,0.011707743629813194,
0.70499999999999996,0.0079093379899859428,
0.70750000000000002,0.0054572029039263725,
0.70999999999999996,0.0031252703629434109,
0.71250000000000002,0.0012741487007588148,
0.71499999999999997,0,
0.71750000000000003,0.00064909458160400391,
0.71999999999999997,0.0019953649025410414,
0.72250000000000003,0.0037503242492675781,
0.72499999999999998,0.0072602434083819389,
0.72750000000000004,0.0084622707217931747,
0.72999999999999998,0.0090873241424560547,
0.73250000000000004,0.0091594457626342773,
0.73499999999999999,0.0082459058612585068,
0.73750000000000004,0.0077410540543496609,
0.73999999999999999,0.0075006484985351562,
0.74250000000000005,0.0086545944213867188,
0.745,0.010265311226248741,
0.74750000000000005,0.012645324692130089,
0.75,0.015698473900556564,
0.75249999999999995,0.023511648178100586,
0.755,0.028031270951032639,
0.75749999999999995,0.032743215560913086,
0.76000000000000001,0.037479203194379807,
0.76249999999999996,0.045965515077114105,
0.76500000000000001,0.049186944961547852,
0.76749999999999996,0.051374636590480804,
0.77000000000000002,0.052360296249389648,
0.77249999999999996,0.052095852792263031,
0.77500000000000002,0.048177242279052734,
0.77749999999999997,0.045196216553449631,
0.78000000000000003,0.042119026184082031,
0.78249999999999997,0.03783981129527092,
0.78500000000000003,0.037527285516262054,
0.78749999999999998,0.038825474679470062,
0.79000000000000004,0.041686296463012695,
0.79249999999999998,0.051326554268598557,
0.79500000000000004,0.057192444801330566,
0.79749999999999999,0.063082382082939148,
0.80000000000000004,0.068443417549133301,
0.80249999999999999,0.076064273715019226,
0.80500000000000005,0.077939435839653015,
0.8075,0.078540444374084473,
0.81000000000000005,0.078059636056423187,
0.8125,0.07488628476858139,
0.81499999999999995,0.072794757783412933,
0.8175,0.07072727382183075,
0.81999999999999995,0.06885211169719696,
0.82250000000000001,0.066087447106838226,
0.82499999999999996,0.065197944641113281,
0.82750000000000001,0.064596936106681824,
0.82999999999999996,0.064212284982204437,
0.83250000000000002,0.063995920121669769,
0.83499999999999996,0.064140163362026215,
0.83750000000000002,0.064452692866325378,
0.83999999999999997,0.065005622804164886,
0.84250000000000003,0.067000985145568848,
0.84499999999999997,0.068539582192897797,
0.84750000000000003,0.070438787341117859,
0.84999999999999998,0.072626471519470215,
0.85250000000000004,0.077506706118583679,
0.85499999999999998,0.07983863353729248,
0.85750000000000004,0.081834003329277039,
0.85999999999999999,0.083252392709255219,
0.86250000000000004,0.083637043833732605,
0.86499999999999999,0.082386933267116547,
0.86750000000000005,0.080271363258361816,
0.87,0.077434584498405457,
0.87250000000000005,0.071135960519313812,
0.875,0.068539582192897797,
0.87749999999999995,0.066928863525390625,
0.88,0.066688463091850281,
0.88249999999999995,0.070991717278957367,
0.88500000000000001,0.075319014489650726,
0.88749999999999996,0.08063197135925293,
0.89000000000000001,0.08632957935333252,
0.89249999999999996,0.096041962504386902,
0.89500000000000002,0.09875854104757309,
0.89749999999999996,0.099431678652763367,
0.90000000000000002,0.09796520322561264,
0.90249999999999997,0.089551016688346863,
0.90500000000000003,0.083733201026916504,
0.90749999999999997,0.077939435839653015,
0.91000000000000003,0.073059201240539551,
0.91249999999999998,0.068804025650024414,
0.91500000000000004,0.07027050107717514,
0.91749999999999998,0.074189111590385437,
0.92000000000000004,0.080151163041591644,
0.92249999999999999,0.095392867922782898,
0.92500000000000004,0.10291755199432373,
0.92749999999999999,0.10921617597341537,
0.93000000000000005,0.11361559480428696,
0.9325,0.11513014882802963,
0.93500000000000005,0.11219720542430878,
0.9375,0.10722081363201141,
0.93999999999999995,0.10072986781597137,
0.9425,0.085680484771728516,
0.94499999999999995,0.078300043940544128,
0.94750000000000001,0.071592733263969421,
0.94999999999999996,0.065750882029533386,
0.95250000000000001,0.056976079940795898,
0.95499999999999996,0.053850810974836349,
0.95750000000000002,0.051398675888776779,
0.95999999999999996,0.049475431442260742,
0.96250000000000002,0.046855013817548752,
0.96499999999999997,0.046133797615766525,
0.96750000000000003,0.045869350433349609,
0.96999999999999997,0.046061675995588303,
0.97250000000000003,0.048081081360578537,
0.97499999999999998,0.049860082566738129,
0.97750000000000004,0.052071809768676758,
0.97999999999999998,0.054547987878322601,
0.98250000000000004,0.059644579887390137,
0.98499999999999999,0.061688028275966644,
0.98750000000000004,0.062914095818996429,
0.98999999999999999,0.062841974198818207,
0.99250000000000005,0.056976079940795898,
0.995,0.050244729965925217,
0.99750000000000005,0.040556393563747406,
1,0.027911067008972168,93.203880310058594
1.0024999999999999,-0.00461578369140625,
1.0049999999999999,-0.022525986656546593,
1.0075000000000001,-0.039426486939191818,
1.01,-0.053201716393232346,
1.0125,-0.06137549877166748,
1.0149999999999999,-0.050581298768520355,
1.0175000000000001,-0.026781162247061729,
1.02,0.011707743629813194,
1.0225,0.13501167297363281,
1.0249999999999999,0.21811982989311218,
1.0275000000000001,0.31223854422569275,
1.03,0.41335305571556091,
1.0325,0.61512529850006104,
1.0349999999999999,0.70349836349487305,
1.0375000000000001,0.77525937557220459,
1.04,0.82490307092666626,
1.0425,0.8428613543510437,
1.0449999999999999,0.80826699733734131,
1.0475000000000001,0.74631452560424805,
1.05,0.66089850664138794,
1.0525,0.44381242990493774,
1.0549999999999999,0.32668691873550415,
1.0575000000000001,0.21384060382843018,
1.0600000000000001,0.11190871894359589,
1.0625,-0.040099620819091797,
1.0649999999999999,-0.085367962718009949,
1.0674999999999999,-0.11022587865591049,
1.0700000000000001,-0.11688511073589325,
1.0725,-0.090176068246364594,
1.075,-0.065342187881469727,
1.0774999999999999,-0.038344662636518478,
1.0800000000000001,-0.01245300006121397,
1.0825,0.027358135208487511,
1.085,0.039570730179548264,
1.0874999999999999,0.046903096139431,
1.0900000000000001,0.050316851586103439,
1.0925,0.05043705552816391,
1.095,0.049619674682617188,
1.0974999999999999,0.049475431442260742,
1.1000000000000001,0.050581298768520355,
1.1025,0.057120323181152344,
1.105,0.062240958213806152,
1.1074999999999999,0.068106852471828461,
1.1100000000000001,0.074309311807155609,
1.1125,0.086161300539970398,
1.115,0.091305971145629883,
1.1174999999999999,0.095681354403495789,
1.1200000000000001,0.099263392388820648,
1.1225000000000001,0.10205209255218506,
1.125,0.10541777312755585,
1.1274999999999999,0.1061149463057518,
1.1299999999999999,0.10623514652252197,
1.1325000000000001,0.10505716502666473,
1.135,0.10390321910381317,
1.1375,0.10253290832042694,
1.1399999999999999,0.10109047591686249,
1.1425000000000001,0.099696122109889984,
1.145,0.0976286381483078,
1.1475,0.097243987023830414,
1.1499999999999999,0.097412273287773132,
1.1525000000000001,0.099816322326660156,
1.155,0.1021001785993576,
1.1575,0.10510524362325668,
1.1599999999999999,0.10880748927593231,
1.1625000000000001,0.11791884899139404,
1.165,0.1230875700712204,
1.1675,0.12844860553741455,
1.1699999999999999,0.13376156985759735,
1.1725000000000001,0.14344990253448486,
1.175,0.14741659164428711,
1.1775,0.15061399340629578,
1.1799999999999999,0.15296995639801025,
1.1825000000000001,0.15527784824371338,
1.1850000000000001,0.15551826357841492,
1.1875,0.15542209148406982,
1.1899999999999999,0.15522977709770203,
1.1924999999999999,0.15583078563213348,
1.1950000000000001,0.15708088874816895,
1.1975,0.15922050178050995,
1.2,0.1623457670211792,
1.2024999999999999,0.17145714163780212,
1.2050000000000001,0.17725090682506561,
1.2075,0.18362164497375488,
1.21,0.19028088450431824,
1.2124999999999999,0.20362338423728943,
1.2150000000000001,0.20987391471862793,
1.2175,0.21564364433288574,
1.22,0.22093257308006287,
1.2224999999999999,0.23021221160888672,
1.2250000000000001,0.23444335162639618,
1.2275,0.23867449164390564,
1.23,0.24297773838043213,
1.2324999999999999,0.25208911299705505,
1.2350000000000001,0.2568010687828064,
1.2375,0.26141685247421265,
1.24,0.26564797759056091,
1.2424999999999999,0.27192255854606628,
1.2450000000000001,0.27348518371582031,
1.2475000000000001,0.2737736701965332,
1.25,0.27276396751403809,
1.2524999999999999,0.26723465323448181,
1.2549999999999999,0.2630515992641449,
1.2575000000000001,0.25821945071220398,
1.26,0.25295457243919373,
1.2625,0.24153530597686768,
1.2649999999999999,0.23550114035606384,
1.2675000000000001,0.22915443778038025,
1.27,0.222399041056633,
1.2725,0.20727753639221191,
1.2749999999999999,0.19876718521118164,
1.2775000000000001,0.18958370387554169,
1.28,0.17982324957847595,
1.2825,0.15910029411315918,
1.2849999999999999,0.14849841594696045,
1.2875000000000001,0.13799270987510681,
1.29,0.12772738933563232,
1.2925,0.10859112441539764,
1.2949999999999999,0.099936529994010925,
1.2975000000000001,0.09193103015422821,
1.3,0.084598660469055176,
1.3025,0.071905255317687988,
1.3049999999999999,0.06639997661113739,
1.3075000000000001,0.061303377151489258,
1.3100000000000001,0.056543350219726562,
1.3125,0.047480069100856781,
1.3149999999999999,0.043008528649806976,
1.3174999999999999,0.038512945175170898,
1.3200000000000001,0.033993326127529144,
1.3225,0.025122364982962608,
1.325,0.020987391471862793,
1.3274999999999999,0.017261108383536339,
1.3300000000000001,0.014063715934753418,
1.3325,0.0096402568742632866,
1.335,0.0085103511810302734,
1.3374999999999999,0.0080535812303423882,
1.3400000000000001,0.0081978244706988335,
1.3425,0.0097845001146197319,
1.345,0.010914405807852745,
1.3474999999999999,0.012116432189941406,
1.3500000000000001,0.013270378112792969,
1.3525,0.015145540237426758,
1.355,0.015818675979971886,
1.3574999999999999,0.016323527321219444,
1.3600000000000001,0.016636054962873459,
1.3625,0.016660094261169434,
1.365,0.016347568482160568,
1.3674999999999999,0.015770595520734787,
1.3700000000000001,0.014881094917654991,
1.3725000000000001,0.012284716591238976,
1.375,0.010625919327139854,
1.3774999999999999,0.00891904067248106,
1.3799999999999999,0.0072602434083819389,
1.3825000000000001,0.0048081083223223686,
1.385,0.004351337905973196,
1.3875,0.004567702766507864,
1.3899999999999999,0.0054812431335449219,
1.3925000000000001,0.009351770393550396,
1.395,0.012044310569763184,
1.3975,0.015025338158011436,
1.3999999999999999,0.018054446205496788,
1.4025000000000001,0.023487608879804611,
1.405,0.025555094704031944,
1.4075,0.027045607566833496,
1.4099999999999999,0.027959149330854416,
1.4125000000000001,0.028199553489685059,
1.415,0.027718743309378624,
1.4175,0.027021568268537521,
1.4199999999999999,0.026228230446577072,
1.4225000000000001,0.024857919663190842,
1.425,0.024425189942121506,
1.4275,0.02428094670176506,
1.4299999999999999,0.024425189942121506,
1.4325000000000001,0.025675296783447266,
1.4350000000000001,0.026733081787824631,
1.4375,0.028031270951032639,
1.4399999999999999,0.029497742652893066,
1.4424999999999999,0.032647054642438889,
1.4450000000000001,0.03413756936788559,
1.4475,0.035435758531093597,
1.45,0.036469500511884689,
1.4524999999999999,0.037647485733032227,
1.4550000000000001,0.037815771996974945,
1.4575,0.037767689675092697,
1.46,0.037575364112854004,
1.4624999999999999,0.037238799035549164,
1.4650000000000001,0.037190716713666916,
1.4675,0.037310920655727386,
1.47,0.037527285516262054,
1.4724999999999999,0.038176380097866058,
1.4750000000000001,0.038440823554992676,
1.4775,0.038561027497053146,
1.48,0.038512945175170898,
1.4824999999999999,0.037887893617153168,
1.4850000000000001,0.037407081574201584,
1.4875,0.036950312554836273,
1.49,0.036613743752241135,
1.4924999999999999,0.03658970445394516,
1.4950000000000001,0.036974351853132248,
1.4975000000000001,0.037599407136440277,
1.5,0.038416784256696701,
1.5024999999999999,0.040219824761152267,
1.5049999999999999,0.041037201881408691,
1.5075000000000001,0.041686296463012695,
1.51,0.042143069207668304,
1.5125,0.04257579892873764,
1.5149999999999999,0.042695999145507812,
1.5175000000000001,0.042888324707746506,
1.52,0.043224893510341644,
1.5225,0.044547121971845627,
1.5249999999999999,0.045508742332458496,
1.5275000000000001,0.046590566635131836,
1.53,0.047672390937805176,
1.5325,0.049162905663251877,
1.5349999999999999,0.049283109605312347,
1.5375000000000001,0.048898458480834961,
1.54,0.047936838120222092,
1.5425,0.044691365212202072,
1.5449999999999999,0.042768120765686035,
1.5475000000000001,0.041013162583112717,
1.55,0.039714973419904709,
1.5525,0.039690934121608734,
1.5549999999999999,0.041421853005886078,
1.5575000000000001,0.044450961053371429,
1.5600000000000001,0.048754215240478516,
1.5625,0.060341756790876389,
1.5649999999999999,0.066904827952384949,
1.5674999999999999,0.073347687721252441,
1.5700000000000001,0.079189538955688477,
1.5725,0.08731524646282196,
1.575,0.088950000703334808,
1.5774999999999999,0.088757678866386414,
1.5800000000000001,0.086786352097988129,
1.5825,0.078276000916957855,
1.585,0.072362028062343597,
1.5874999999999999,0.065847039222717285,
1.5900000000000001,0.059091649949550629,
1.5925,0.04598955437541008,
1.595,0.039979420602321625,
1.5974999999999999,0.034402012825012207,
1.6000000000000001,0.029281377792358398,
1.6025,0.020049810409545898,
1.605,0.01584271714091301,
1.6074999999999999,0.011876027099788189,
1.6100000000000001,0.0082459058612585068,
1.6125,0.0025002162437886,
1.615,0.00081737840082496405,
1.6174999999999999,0.00026444596005603671,
1.6200000000000001,0.00096162164118140936,
1.6225000000000001,0.0064909458160400391,
1.625,0.010986527428030968,
1.6274999999999999,0.016107162460684776,
1.6299999999999999,0.021203756332397461,
1.6325000000000001,0.027935108169913292,
1.635,0.027718743309378624,
1.6375,0.023944377899169922,
1.6399999999999999,0.01601099967956543,
1.6425000000000001,-0.013054013252258301,
1.645,-0.03334423154592514,
1.6475,-0.056086581200361252,
1.6499999999999999,-0.07950206845998764,
1.6525000000000001,-0.11931320279836655,
1.655,-0.13044397532939911,
1.6575,-0.13205468654632568,
1.6599999999999999,-0.1215970516204834,
1.6625000000000001,-0.056639514863491058,
1.665,-9.6162162662949413e-05,
1.6675,0.072169706225395203,
1.6699999999999999,0.15847525000572205,
1.6725000000000001,0.35998305678367615,
1.675,0.46568930149078369,
1.6775,0.56687593460083008,
1.6799999999999999,0.65714818239212036,
1.6825000000000001,0.78057229518890381,
1.6850000000000001,0.80393970012664795,
1.6875,0.79783344268798828,
1.6899999999999999,0.76186877489089966,
1.6924999999999999,0.60995662212371826,
1.6950000000000001,0.50388973951339722,
1.6975,0.38681229948997498,
1.7,0.26653748750686646,
1.7024999999999999,0.046109758317470551,
1.7050000000000001,-0.041902661323547363,
1.7075,-0.10988931357860565,
1.71,-0.15643179416656494,
1.7124999999999999,-0.18931925296783447,
1.7150000000000001,-0.18153011798858643,
1.7175,-0.1630910336971283,
1.72,-0.13842543959617615,
1.7224999999999999,-0.085993014276027679,
1.7250000000000001,-0.063875719904899597,
1.7275,-0.046590566635131836,
1.73,-0.03442605584859848,
1.7324999999999999,-0.023151040077209473,
1.7350000000000001,-0.021804770454764366,
1.7375,-0.021612446755170822,
1.74,-0.021540325134992599,
1.7424999999999999,-0.019016068428754807,
1.7450000000000001,-0.01601099967956543,
1.7475000000000001,-0.011996230110526085,
1.75,-0.0072602434083819389,
1.7524999999999999,0.0028608243446797132,
1.7549999999999999,0.0076208515092730522,
1.7575000000000001,0.011900067329406738,
1.76,0.015602311119437218,
1.7625,0.021396081894636154,
1.7649999999999999,0.023679932579398155,
1.7675000000000001,0.025675296783447266,
1.77,0.027454297989606857,
1.7725,0.030651688575744629,
1.7749999999999999,0.032118164002895355,
1.7775000000000001,0.033536553382873535,
1.78,0.034906864166259766,
1.7825,0.037599407136440277,
1.7849999999999999,0.038993757218122482,
1.7875000000000001,0.04046022891998291,
1.79,0.041974782943725586,
1.7925,0.045196216553449631,
1.7949999999999999,0.046855013817548752,
1.7975000000000001,0.048561893403530121,
1.8,0.050316851586103439,
1.8025,0.05397101491689682,
1.8049999999999999,0.055990420281887054,
1.8075000000000001,0.058202147483825684,
1.8100000000000001,0.060678325593471527,
1.8125,0.066496133804321289,
1.8149999999999999,0.069813728332519531,
1.8174999999999999,0.073299609124660492,
1.8200000000000001,0.076881647109985352,
1.8225,0.083829365670681,
1.825,0.086954638361930847,
1.8274999999999999,0.089743338525295258,
1.8300000000000001,0.092171430587768555,
1.8325,0.096162162721157074,
1.835,0.09796520322561264,
1.8374999999999999,0.099888443946838379,
1.8400000000000001,0.10205209255218506,
1.8425,0.10794202983379364,
1.845,0.11188467592000961,
1.8474999999999999,0.11652450263500214,
1.8500000000000001,0.12186150252819061,
1.8525,0.13417026400566101,
1.855,0.14082948863506317,
1.8574999999999999,0.14758488535881042,
1.8600000000000001,0.15426814556121826,
1.8625,0.16688942909240723,
1.865,0.17261108756065369,
1.8674999999999999,0.17792403697967529,
1.8700000000000001,0.18278023600578308,
1.8725000000000001,0.19119441509246826,
1.875,0.19480049610137939,
1.8774999999999999,0.19802193343639374,
1.8799999999999999,0.20083467662334442,
1.8825000000000001,0.20528218150138855,
1.885,0.20684480667114258,
1.8875,0.20797471702098846,
1.8899999999999999,0.20864784717559814,
1.8925000000000001,0.20864784717559814,
1.895,0.20795068144798279,
1.8975,0.20677268505096436,
1.8999999999999999,0.20508985221385956,
1.9025000000000001,0.19989709556102753,
1.905,0.19624292850494385,
1.9075,0.19174735248088837,
1.9099999999999999,0.17999152839183807,
1.9125000000000001,0.17270724475383759,
1.915,0.16453346610069275,
1.9175,0.15559038519859314,
1.9199999999999999,0.14599820971488953,
1.9225000000000001,0.12561182677745819,
1.925,0.11520227044820786,
1.9275,0.10486483573913574,
1.9299999999999999,0.094743773341178894,
1.9325000000000001,0.075415179133415222,
1.9350000000000001,0.066255733370780945,
1.9375,0.057432852685451508,
1.9399999999999999,0.040652554482221603,
1.9424999999999999,0.032598972320556641,
1.9450000000000001,0.024785798043012619,
1.9475,0.01721302792429924,
1.95,0.0029329459648579359,
1.9524999999999999,-0.0035820405464619398,
1.9550000000000001,-0.0095921754837036133,
1.9575,-0.014977256767451763,
1.96,-0.023631852120161057,
1.9624999999999999,-0.026805203408002853,
1.9650000000000001,-0.029209256172180176,
1.9675,-0.030916135758161545,
1.97,-0.03197392076253891,
1.9724999999999999,-0.032695136964321136,
1.9750000000000001,-0.032647054642438889,
1.9775,-0.032478772103786469,
1.98,-0.032358568161725998,
1.9824999999999999,-0.032623015344142914,
1.9850000000000001,-0.033127866685390472,
1.9875,-0.033897161483764648,
1.99,-0.036060810089111328,
1.9924999999999999,-0.037262838333845139,
1.9950000000000001,-0.038416784256696701,
1.9975000000000001,-0.039426486939191818,
2,-0.040652554482221603,94.117645263671875
2.0024999999999999,-0.040844880044460297,
2.0049999999999999,-0.040748715400695801,
2.0074999999999998,-0.04046022891998291,
2.0099999999999998,-0.039570730179548264,
2.0125000000000002,-0.039138000458478928,
2.0150000000000001,-0.038777392357587814,
2.0175000000000001,-0.038536988198757172,
2.02,-0.038224458694458008,
2.0225,-0.038056176155805588,
2.0249999999999999,-0.037863850593566895,
2.0274999999999999,-0.037623446434736252,
2.0299999999999998,-0.037310920655727386,
2.0325000000000002,-0.036685865372419357,
2.0350000000000001,-0.036517582833766937,
2.0375000000000001,-0.036517582833766937,
2.04,-0.037046473473310471,
2.0425,-0.037503242492675781,
2.0449999999999999,-0.037935972213745117,
2.0474999999999999,-0.038248501718044281,
2.0499999999999998,-0.037911932915449142,
2.0525000000000002,-0.037142634391784668,
2.0550000000000002,-0.035964649170637131,
2.0575000000000001,-0.03442605584859848,
2.0600000000000001,-0.030771892517805099,
2.0625,-0.028968852013349533,
2.0649999999999999,-0.027406215667724609,
2.0674999999999999,-0.026156108826398849,
2.0699999999999998,-0.024785798043012619,
2.0724999999999998,-0.024569433182477951,
2.0750000000000002,-0.024545392021536827,
2.0775000000000001,-0.024569433182477951,
2.0800000000000001,-0.024256905540823936,
2.0825,-0.023776095360517502,
2.085,-0.022958716377615929,
2.0874999999999999,-0.021852850914001465,
2.0899999999999999,-0.018992027267813683,
2.0924999999999998,-0.017405351623892784,
2.0950000000000002,-0.015890797600150108,
2.0975000000000001,-0.014568567276000977,
2.1000000000000001,-0.012885729782283306,
2.1025,-0.012669364921748638,
2.105,-0.012909770011901855,
2.1074999999999999,-0.013606945984065533,
2.1099999999999999,-0.016083121299743652,
2.1124999999999998,-0.017645757645368576,
2.1150000000000002,-0.019256472587585449,
2.1175000000000002,-0.020771026611328125,
2.1200000000000001,-0.022934675216674805,
2.1225000000000001,-0.023415487259626389,
2.125,-0.023439526557922363,
2.1274999999999999,-0.022982757538557053,
2.1299999999999999,-0.020963352173566818,
2.1324999999999998,-0.01966516301035881,
2.1349999999999998,-0.018318891525268555,
2.1375000000000002,-0.017140906304121017,
2.1400000000000001,-0.01567443273961544,
2.1425000000000001,-0.015578269958496094,
2.145,-0.015938878059387207,
2.1475,-0.016684135422110558,
2.1499999999999999,-0.018967986106872559,
2.1524999999999999,-0.020218094810843468,
2.1549999999999998,-0.021323960274457932,
2.1575000000000002,-0.022141337394714355,
2.1600000000000001,-0.022622149437665939,
2.1625000000000001,-0.022285580635070801,
2.165,-0.021636486053466797,
2.1675,-0.020843148231506348,
2.1699999999999999,-0.01937667652964592,
2.1724999999999999,-0.019040107727050781,
2.1749999999999998,-0.019064148887991905,
2.1775000000000002,-0.019472837448120117,
2.1800000000000002,-0.021299919113516808,
2.1825000000000001,-0.022405784577131271,
2.1850000000000001,-0.023439526557922363,
2.1875,-0.024184783920645714,
2.1899999999999999,-0.024256905540823936,
2.1924999999999999,-0.023415487259626389,
2.1949999999999998,-0.021973054856061935,
2.1974999999999998,-0.020025771111249924,
2.2000000000000002,-0.015025338158011436,
2.2025000000000001,-0.012308756820857525,
2.2050000000000001,-0.0096883382648229599,
2.2075,-0.0073083243332803249,
2.21,-0.0038464865647256374,
2.2124999999999999,-0.0029329459648579359,
2.2149999999999999,-0.0025963783264160156,
2.2174999999999998,-0.0028127431869506836,
2.2200000000000002,-0.004567702766507864,
2.2225000000000001,-0.0058418512344360352,
2.2250000000000001,-0.007140040397644043,
2.2275,-0.0082459058612585068,
2.23,-0.0089430809020996094,
2.2324999999999999,-0.0082218647003173828,
2.2349999999999999,-0.0064909458160400391,
2.2374999999999998,-0.0037022433243691921,
2.2400000000000002,0.0050244731828570366,
2.2425000000000002,0.010649959556758404,
2.2450000000000001,0.016780298203229904,
2.2475000000000001,0.023054879158735275,
2.25,0.034329891204833984,
2.2524999999999999,0.038488905876874924,
2.2549999999999999,0.041157405823469162,
2.2574999999999998,0.042143069207668304,
2.2599999999999998,0.038609109818935394,
2.2625000000000002,0.034281812608242035,
2.2650000000000001,0.028560161590576172,
2.2675000000000001,0.021780729293823242,
2.27,0.0065630674362182617,
2.2725,-0.0011058648815378547,
2.2749999999999999,-0.0083420677110552788,
2.2774999999999999,-0.014953216537833214,
2.2799999999999998,-0.025410851463675499,
2.2825000000000002,-0.029161175712943077,
2.2850000000000001,-0.031901799142360687,
2.2875000000000001,-0.033728878945112228,
2.29,-0.035171311348676682,
2.2925,-0.035075150430202484,
2.2949999999999999,-0.034642420709133148,
2.2974999999999999,-0.033921204507350922,
2.2999999999999998,-0.031829677522182465,
2.3025000000000002,-0.030459364876151085,
2.3050000000000002,-0.028848648071289062,
2.3075000000000001,-0.026997527107596397,
2.3100000000000001,-0.023319324478507042,
2.3125,-0.022141337394714355,
2.3149999999999999,-0.022141337394714355,
2.3174999999999999,-0.023968419060111046,
2.3199999999999998,-0.036036770790815353,
2.3224999999999998,-0.047335825860500336,
2.3250000000000002,-0.062409244477748871,
2.3275000000000001,-0.080944500863552094,
2.3300000000000001,-0.12421747297048569,
2.3325,-0.14556547999382019,
2.335,-0.16357183456420898,
2.3374999999999999,-0.17547190189361572,
2.3399999999999999,-0.16941368579864502,
2.3424999999999998,-0.14623861014842987,
2.3450000000000002,-0.10702848434448242,
2.3475000000000001,-0.050893824547529221,
2.3500000000000001,0.10996143519878387,
2.3525,0.21021048724651337,
2.355,0.31846505403518677,
2.3574999999999999,0.42926788330078125,
2.3599999999999999,0.63289129734039307,
2.3624999999999998,0.71229720115661621,
2.3650000000000002,0.76852798461914062,
2.3675000000000002,0.79696798324584961,
2.3700000000000001,0.76124370098114014,
2.3725000000000001,0.69816136360168457,
2.375,0.60952389240264893,
2.3774999999999999,0.50136548280715942,
2.3799999999999999,0.25684913992881775,
2.3824999999999998,0.13664643466472626,
2.3849999999999998,0.0276947021484375,
2.3875000000000002,-0.064356528222560883,
2.3900000000000001,-0.18513619899749756,
2.3925000000000001,-0.21292707324028015,
2.395,-0.22153358161449432,
2.3975,-0.21473011374473572,
2.3999999999999999,-0.19689202308654785,
2.4024999999999999,-0.14616648852825165,
2.4049999999999998,-0.12082775682210922,
2.4075000000000002,-0.098974905908107758,
2.4100000000000001,-0.069621406495571136,
2.4125000000000001,-0.061808228492736816,
2.415,-0.057312648743391037,
2.4175,-0.054908595979213715,
2.4199999999999999,-0.05151887983083725,
2.4224999999999999,-0.048922501504421234,
2.4249999999999998,-0.045244298875331879,
2.4275000000000002,-0.040484271943569183,
2.4300000000000002,-0.029113095253705978,
2.4325000000000001,-0.023343365639448166,
2.4350000000000001,-0.018054446205496788,
2.4375,-0.013486742973327637,
2.4399999999999999,-0.0068996353074908257,
2.4424999999999999,-0.004784067627042532,
2.4449999999999998,-0.0032214324455708265,
2.4474999999999998,-0.002043446060270071,
2.4500000000000002,-0.00021636486053466797,
2.4525000000000001,0.00064909458160400391,
2.4550000000000001,0.0015385946026071906,
2.4575,0.0024521350860595703,
2.46,0.0044234595261514187,
2.4624999999999999,0.0054812431335449219,
2.4649999999999999,0.006611148826777935,
2.4674999999999998,0.0078612565994262695,
2.4700000000000002,0.010914405807852745,
2.4725000000000001,0.012813608162105083,
2.4750000000000001,0.014953216537833214,
2.4775,0.017333230003714561,
2.48,0.022525986656546593,
2.4824999999999999,0.025194486603140831,
2.4849999999999999,0.027838945388793945,
2.4874999999999998,0.030339162796735764,
2.4900000000000002,0.035051107406616211,
2.4925000000000002,0.037262838333845139,
2.4950000000000001,0.039522647857666016,
2.4975000000000001,0.041854582726955414,
2.5,0.047119460999965668,
2.5024999999999999,0.050076447427272797,
2.5049999999999999,0.053273838013410568,
2.5074999999999998,0.056639514863491058,
2.5099999999999998,0.063442990183830261,
2.5125000000000002,0.066760584712028503,
2.5150000000000001,0.0699339359998703,
2.5175000000000001,0.072963044047355652,
2.52,0.078973174095153809,
2.5225,0.082194611430168152,
2.5249999999999999,0.085776649415493011,
2.5274999999999999,0.08986353874206543,
2.5299999999999998,0.099960565567016602,
2.5325000000000002,0.10599474608898163,
2.5350000000000001,0.11255781352519989,
2.5375000000000001,0.11952956765890121,
2.54,0.13378560543060303,
2.5425,0.14068524539470673,
2.5449999999999999,0.14717619121074677,
2.5474999999999999,0.15316228568553925,
2.5499999999999998,0.16354779899120331,
2.5525000000000002,0.16801933944225311,
2.5550000000000002,0.1721302717924118,
2.5575000000000001,0.17600080370903015,
2.5600000000000001,0.18333315849304199,
2.5625,0.18684308230876923,
2.5649999999999999,0.19025683403015137,
2.5674999999999999,0.19347827136516571,
2.5699999999999998,0.19895951449871063,
2.5724999999999998,0.20100295543670654,
2.5750000000000002,0.202445387840271,
2.5775000000000001,0.20319065451622009,
2.5800000000000001,0.20237326622009277,
2.5825,0.2006663978099823,
2.585,0.19799789786338806,
2.5874999999999999,0.19434373080730438,
2.5899999999999999,0.18374185264110565,
2.5924999999999998,0.17674605548381805,
2.5950000000000002,0.16866843402385712,
2.5975000000000001,0.15960514545440674,
2.6000000000000001,0.13909856975078583,
2.6025,0.12811204791069031,
2.605,0.11695723235607147,
2.6074999999999999,0.10585050284862518,
2.6099999999999999,0.084526538848876953,
2.6124999999999998,0.074453555047512054,
2.6150000000000002,0.064765214920043945,
2.6175000000000002,0.055389404296875,
2.6200000000000001,0.037094555795192719,
2.6225000000000001,0.027983188629150391,
2.625,0.018895864486694336,
2.6274999999999999,0.0098085403442382812,
2.6299999999999999,-0.0077410540543496609,
2.6324999999999998,-0.015890797600150108,
2.6349999999999998,-0.023319324478507042,
2.6375000000000002,-0.029930472373962402,
2.6400000000000001,-0.040340028703212738,
2.6425000000000001,-0.044210553169250488,
2.645,-0.047287743538618088,
2.6475,-0.049763917922973633,
2.6499999999999999,-0.053634446114301682,
2.6524999999999999,-0.055269204080104828,
2.6549999999999998,-0.056855879724025726,
2.6575000000000002,-0.058346390724182129,
2.6600000000000001,-0.060942769050598145,
2.6625000000000001,-0.061856310814619064,
2.665,-0.062409244477748871,
2.6675,-0.062577530741691589,
2.6699999999999999,-0.061808228492736816,
2.6724999999999999,-0.061014890670776367,
2.6749999999999998,-0.060077309608459473,
2.6775000000000002,-0.059139728546142578,
2.6800000000000002,-0.05767325684428215,
2.6825000000000001,-0.057288609445095062,
2.6850000000000001,-0.057192444801330566,
2.6875,-0.057360731065273285,
2.6899999999999999,-0.058226190507411957,
2.6924999999999999,-0.058779120445251465,
2.6949999999999998,-0.059283971786499023,
2.6974999999999998,-0.059692662209272385,
2.7000000000000002,-0.06000518798828125,
2.7025000000000001,-0.059884987771511078,
2.7050000000000001,-0.059572458267211914,
2.7075,-0.059163771569728851,
2.71,-0.058154068887233734,
2.7124999999999999,-0.057649217545986176,
2.7149999999999999,-0.057192444801330566,
2.7174999999999998,-0.056807797402143478,
2.7200000000000002,-0.056158702820539474,
2.7225000000000001,-0.055870216339826584,
2.7250000000000001,-0.055557690560817719,
2.7275,-0.055245161056518555,
2.73,-0.054620109498500824,
2.7324999999999999,-0.054427783936262131,
2.7349999999999999,-0.054355662316083908,
2.7374999999999998,-0.054499905556440353,
2.7400000000000002,-0.055341325700283051,
2.7425000000000002,-0.055942337960004807,
2.7450000000000001,-0.056543350219726562,
2.7475000000000001,-0.056976079940795898,
2.75,-0.056711636483669281,
2.7524999999999999,-0.055822134017944336,
2.7549999999999999,-0.054355662316083908,
2.7574999999999998,-0.052384339272975922,
2.7599999999999998,-0.047624312341213226,
2.7625000000000002,-0.045292377471923828,
2.7650000000000001,-0.043345093727111816,
2.7675000000000001,-0.041950743645429611,
2.77,-0.04137377068400383,
2.7725,-0.042143069207668304,
2.7749999999999999,-0.043393176048994064,
2.7774999999999999,-0.044883690774440765,
2.7799999999999998,-0.047504108399152756,
2.7825000000000002,-0.048105120658874512,
2.7850000000000001,-0.048032999038696289,
2.7875000000000001,-0.04723966121673584,
2.79,-0.043849945068359375,
2.7925,-0.041638217866420746,
2.7949999999999999,-0.03937840461730957,
2.7974999999999999,-0.037334959954023361,
2.7999999999999998,-0.034546256065368652,
2.8025000000000002,-0.033969283103942871,
2.8050000000000002,-0.033969283103942871,
2.8075000000000001,-0.03442605584859848,
2.8100000000000001,-0.036229096353054047,
2.8125,-0.037286877632141113,
2.8149999999999999,-0.038272541016340256,
2.8174999999999999,-0.039113961160182953,
2.8199999999999998,-0.04012366384267807,
2.8224999999999998,-0.040243864059448242,
2.8250000000000002,-0.04012366384267807,
2.8275000000000001,-0.039811134338378906,
2.8300000000000001,-0.038705270737409592,
2.8325,-0.03800809383392334,
2.835,-0.037310920655727386,
2.8374999999999999,-0.036613743752241135,
2.8399999999999999,-0.035604041069746017,
2.8424999999999998,-0.035387676209211349,
2.8450000000000002,-0.035387676209211349,
2.8475000000000001,-0.035628080368041992,
2.8500000000000001,-0.036733947694301605,
2.8525,-0.037479203194379807,
2.855,-0.038200419396162033,
2.8574999999999999,-0.038825474679470062,
2.8599999999999999,-0.039354365319013596,
2.8624999999999998,-0.039138000458478928,
2.8650000000000002,-0.038585066795349121,
2.8675000000000002,-0.037719607353210449,
2.8700000000000001,-0.03550788015127182,
2.8725000000000001,-0.034377973526716232,
2.875,-0.03339231014251709,
2.8774999999999999,-0.032647054642438889,
2.8799999999999999,-0.032118164002895355,
2.8824999999999998,-0.03231048583984375,
2.8849999999999998,-0.032719176262617111,
2.8875000000000002,-0.03322402760386467,
2.8900000000000001,-0.033945243805646896,
2.8925000000000001,-0.033897161483764648,
2.895,-0.033440392464399338,
2.8975,-0.032454729080200195,
2.8999999999999999,-0.028944810852408409,
2.9024999999999999,-0.026516716927289963,
2.9049999999999998,-0.023800134658813477,
2.9075000000000002,-0.021011432632803917,
2.9100000000000001,-0.016083121299743652,
2.9125000000000001,-0.014352202415466309,
2.915,-0.013390581123530865,
2.9175,-0.013294419273734093,
2.9199999999999999,-0.015626352280378342,
2.9224999999999999,-0.017790000885725021,
2.9249999999999998,-0.020338296890258789,
2.9275000000000002,-0.022886594757437706,
2.9300000000000002,-0.026709040626883507,
2.9325000000000001,-0.027310054749250412,
2.9350000000000001,-0.026757121086120605,
2.9375,-0.02490600012242794,
2.9399999999999999,-0.017477473244071007,
2.9424999999999999,-0.012236635200679302,
2.9449999999999998,-0.0063226623460650444,
2.9474999999999998,-0.00014424324035644531,
2.9500000000000002,0.011515418998897076,
2.9525000000000001,0.016227364540100098,
2.9550000000000001,0.019785365089774132,
2.9575,0.021949013695120811,
2.96,0.021612446755170822,
2.9624999999999999,0.019160311669111252,
2.9649999999999999,0.015337864868342876,
2.9674999999999998,0.010433594696223736,
2.9700000000000002,-0.0013943513622507453,
2.9725000000000001,-0.0076208515092730522,
2.9750000000000001,-0.013606945984065533,
2.9775,-0.019112229347229004,
2.98,-0.027959149330854416,
2.9824999999999999,-0.031252704560756683,
2.9849999999999999,-0.033849082887172699,
2.9874999999999998,-0.035940609872341156,
2.9900000000000002,-0.039426486939191818,
2.9925000000000002,-0.041157405823469162,
2.9950000000000001,-0.043008528649806976,
2.9975000000000001,-0.044955812394618988,
3,-0.048585932701826096,93.385215759277344
3.0024999999999999,-0.049739878624677658,
3.0049999999999999,-0.050100486725568771,
3.0074999999999998,-0.04940330982208252,
3.0099999999999998,-0.044667325913906097,
3.0125000000000002,-0.041061244904994965,
3.0150000000000001,-0.037310920655727386,
3.0175000000000001,-0.034209690988063812,
3.02,-0.033873122185468674,
3.0225,-0.038585066795349121,
3.0249999999999999,-0.047576230019330978,
3.0274999999999999,-0.061183176934719086,
3.0299999999999998,-0.10099431127309799,
3.0325000000000002,-0.12508293986320496,
3.0350000000000001,-0.14960429072380066,
3.0375000000000001,-0.17210623621940613,
3.04,-0.19972881674766541,
3.0425,-0.19895951449871063,
3.0449999999999999,-0.18487176299095154,
3.0474999999999999,-0.1553499698638916,
3.0499999999999998,-0.045701067894697189,
3.0525000000000002,0.033969283103942871,
3.0550000000000002,0.12779951095581055,
3.0575000000000001,0.2323758602142334,
3.0600000000000001,0.45402964949607849,
3.0625,0.55899065732955933,
3.0649999999999999,0.65121018886566162,
3.0674999999999999,0.72426939010620117,
3.0699999999999998,0.79211175441741943,
3.0724999999999998,0.78052425384521484,
3.0750000000000002,0.73785227537155151,
3.0775000000000001,0.66647589206695557,
3.0800000000000001,0.45768380165100098,
3.0825,0.33430776000022888,
3.085,0.2090565413236618,
3.0874999999999999,0.089839503169059753,
3.0899999999999999,-0.10450422763824463,
3.0924999999999998,-0.17102441191673279,
3.0950000000000002,-0.21492242813110352,
3.0975000000000001,-0.23720800876617432,
3.1000000000000001,-0.2291063517332077,
3.1025,-0.20730158686637878,
3.105,-0.17991940677165985,
3.1074999999999999,-0.12436171621084213,
3.1099999999999999,-0.10185977071523666,
3.1124999999999998,-0.084766946732997894,
3.1150000000000002,-0.073203444480895996,
3.1175000000000002,-0.066472098231315613,
3.1200000000000001,-0.062577530741691589,
3.1225000000000001,-0.062577530741691589,
3.125,-0.0622890405356884,
3.1274999999999999,-0.060942769050598145,
3.1299999999999999,-0.05413929745554924,
3.1324999999999998,-0.048994623124599457,
3.1349999999999998,-0.043321054428815842,
3.1375000000000002,-0.037623446434736252,
3.1400000000000001,-0.028055310249328613,
3.1425000000000001,-0.024761756882071495,
3.145,-0.022525986656546593,
3.1475,-0.020554661750793457,
3.1499999999999999,-0.020242135971784592,
3.1524999999999999,-0.019905567169189453,
3.1549999999999998,-0.019256472587585449,
3.1575000000000002,-0.016275446861982346,
3.1600000000000001,-0.013799270614981651,
3.1625000000000001,-0.010722081176936626,
3.165,-0.0072362027131021023,
3.1675,0.00012020270514767617,
3.1699999999999999,0.0035580000840127468,
3.1724999999999999,0.006611148826777935,
3.1749999999999998,0.0091594457626342773,
3.1775000000000002,0.012837648391723633,
3.1800000000000002,0.014087757095694542,
3.1825000000000001,0.015121500007808208,
3.1850000000000001,0.016083121299743652,
3.1875,0.018246769905090332,
3.1899999999999999,0.019593041390180588,
3.1924999999999999,0.021179717034101486,
3.1949999999999998,0.022934675216674805,
3.1974999999999998,0.026973485946655273,
3.2000000000000002,0.0292332973331213,
3.2025000000000001,0.031661391258239746,
3.2050000000000001,0.034257769584655762,
3.2075,0.040267907083034515,
3.21,0.04370570182800293,
3.2124999999999999,0.047431986778974533,
3.2149999999999999,0.051422715187072754,
3.2174999999999998,0.059884987771511078,
3.2200000000000002,0.064188241958618164,
3.2225000000000001,0.068443417549133301,
3.2250000000000001,0.072626471519470215,
3.2275,0.080944500863552094,
3.23,0.08519967645406723,
3.2324999999999999,0.089671216905117035,
3.2349999999999999,0.09447932243347168,
3.2374999999999998,0.1052735298871994,
3.2400000000000002,0.11130770295858383,
3.2425000000000002,0.11765440553426743,
3.2450000000000001,0.12421747297048569,
3.2475000000000001,0.13085266947746277,
3.25,0.14371435344219208,
3.2524999999999999,0.14967641234397888,
3.2549999999999999,0.1552538126707077,
3.2574999999999998,0.16508638858795166,
3.2599999999999998,0.16938965022563934,
3.2625000000000002,0.17335633933544159,
3.2650000000000001,0.17705857753753662,
3.2675000000000001,0.1837899386882782,
3.27,0.1868671178817749,
3.2725,0.18972794711589813,
3.2749999999999999,0.19232432544231415,
3.2774999999999999,0.19458413124084473,
3.2799999999999998,0.19761323928833008,
3.2825000000000002,0.19814214110374451,
3.2850000000000001,0.19787769019603729,
3.2875000000000001,0.1945120096206665,
3.29,0.19124250113964081,
3.2925,0.18689116835594177,
3.2949999999999999,0.1814579963684082,
3.2974999999999999,0.16761064529418945,
3.2999999999999998,0.15934070944786072,
3.3025000000000002,0.15027742087841034,
3.3050000000000002,0.1405169665813446,
3.3075000000000001,0.13013145327568054,
3.3100000000000001,0.10782182216644287,
3.3125,0.096041962504386902,
3.3149999999999999,0.083997651934623718,
3.3174999999999999,0.059596501290798187,
3.3199999999999998,0.047552190721035004,
3.3224999999999998,0.03584444522857666,
3.3250000000000002,0.02461751364171505,
3.3275000000000001,0.0042551755905151367,
3.3300000000000001,-0.0047119460068643093,
3.3325,-0.012861689552664757,
3.335,-0.020194053649902344,
3.3374999999999999,-0.032647054642438889,
3.3399999999999999,-0.037935972213745117,
3.3424999999999998,-0.042671959847211838,
3.3450000000000002,-0.046927135437726974,
3.3475000000000001,-0.054067175835371017,
3.3500000000000001,-0.056976079940795898,
3.3525,-0.059404175728559494,
3.355,-0.061399541795253754,
3.3574999999999999,-0.064140163362026215,
3.3599999999999999,-0.064957544207572937,
3.3624999999999998,-0.065486431121826172,
3.3650000000000002,-0.065798960626125336,
3.3675000000000002,-0.066063404083251953,
3.3700000000000001,-0.066135525703430176,
3.3725000000000001,-0.066207647323608398,
3.375,-0.066375933587551117,
3.3774999999999999,-0.067025028169155121,
3.3799999999999999,-0.067553922533988953,
3.3824999999999998,-0.068251095712184906,
3.3849999999999998,-0.069116555154323578,
3.3875000000000002,-0.071208082139492035,
3.3900000000000001,-0.072337985038757324,
3.3925000000000001,-0.073395773768424988,
3.395,-0.074285268783569336,
3.3975,-0.075198814272880554,
3.3999999999999999,-0.075078606605529785,
3.4024999999999999,-0.074573755264282227,
3.4049999999999998,-0.073684260249137878,
3.4075000000000002,-0.072506271302700043,
3.4100000000000001,-0.069765649735927582,
3.4125000000000001,-0.068443417549133301,
3.415,-0.067313514649868011,
3.4175,-0.065798960626125336,
3.4199999999999999,-0.065390273928642273,
3.4224999999999999,-0.065173909068107605,
3.4249999999999998,-0.065005622804164886,
3.4275000000000002,-0.064861379563808441,
3.4300000000000002,-0.064428649842739105,
3.4325000000000001,-0.064068041741847992,
3.4350000000000001,-0.063683390617370605,
3.4375,-0.062914095818996429,
3.4399999999999999,-0.062577530741691589,
3.4424999999999999,-0.0622890405356884,
3.4449999999999998,-0.06200055405497551,
3.4474999999999998,-0.061231255531311035,
3.4500000000000002,-0.060630243271589279,
3.4525000000000001,-0.059812866151332855,
3.4550000000000001,-0.058779120445251465,
3.4575,-0.056278906762599945,
3.46,-0.054956674575805664,
3.4624999999999999,-0.053706567734479904,
3.4649999999999999,-0.052624743431806564,
3.4674999999999998,-0.051326554268598557,
3.4700000000000002,-0.051158271729946136,
3.4725000000000001,-0.051278471946716309,
3.4750000000000001,-0.051639080047607422,
3.4775,-0.052696865051984787,
3.48,-0.053177677094936371,
3.4824999999999999,-0.053490202873945236,
3.4849999999999999,-0.053562324494123459,
3.4874999999999998,-0.052865147590637207,
3.4900000000000002,-0.052047770470380783,
3.4925000000000002,-0.050941906869411469,
3.4950000000000001,-0.049619674682617188,
3.4975000000000001,-0.046494405716657639,
3.5,-0.044835608452558517,
3.5024999999999999,-0.043224893510341644,
3.5049999999999999,-0.041686296463012695,
3.5074999999999998,-0.039065878838300705,
3.5099999999999998,-0.038104258477687836,
3.5125000000000002,-0.037431120872497559,
3.5150000000000001,-0.037046473473310471,
3.5175000000000001,-0.037286877632141113,
3.52,-0.037863850593566895,
3.5225,-0.038729310035705566,
3.5249999999999999,-0.039787095040082932,
3.5274999999999999,-0.041998825967311859,
3.5299999999999998,-0.042960446327924728,
3.5325000000000002,-0.043633580207824707,
3.5350000000000001,-0.043970149010419846,
3.5375000000000001,-0.043922066688537598,
3.54,-0.042840242385864258,
3.5425,-0.042022865265607834,
3.5449999999999999,-0.041181445121765137,
3.5474999999999999,-0.040051542222499847,
3.5499999999999998,-0.039979420602321625,
3.5525000000000002,-0.04029194638133049,
3.5550000000000002,-0.040917001664638519,
3.5575000000000001,-0.041758418083190918,
3.5600000000000001,-0.04353741928935051,
3.5625,-0.044138431549072266,
3.5649999999999999,-0.044402878731489182,
3.5674999999999999,-0.043729744851589203,
3.5699999999999998,-0.042864285409450531,
3.5724999999999998,-0.041734378784894943,
3.5750000000000002,-0.04046022891998291,
3.5775000000000001,-0.03783981129527092,
3.5800000000000001,-0.036637783050537109,
3.5825,-0.035580001771450043,
3.585,-0.034714542329311371,
3.5874999999999999,-0.033560596406459808,
3.5899999999999999,-0.033368270844221115,
3.5924999999999998,-0.03351251408457756,
3.5950000000000002,-0.033993326127529144,
3.5975000000000001,-0.036060810089111328,
3.6000000000000001,-0.037575364112854004,
3.6025,-0.039306282997131348,
3.605,-0.041085284203290939,
3.6074999999999999,-0.044114392250776291,
3.6099999999999999,-0.045051973313093185,
3.6124999999999998,-0.045436620712280273,
3.6150000000000002,-0.045244298875331879,
3.6175000000000002,-0.043224893510341644,
3.6200000000000001,-0.041590135544538498,
3.6225000000000001,-0.039690934121608734,
3.625,-0.037695568054914474,
3.6274999999999999,-0.033584635704755783,
3.6299999999999999,-0.031541191041469574,
3.6324999999999998,-0.029545824974775314,
3.6349999999999998,-0.027502378448843956,
3.6375000000000002,-0.023391446098685265,
3.6400000000000001,-0.021396081894636154,
3.6425000000000001,-0.01954495906829834,
3.645,-0.018006365746259689,
3.6475,-0.016491811722517014,
3.6499999999999999,-0.016732215881347656,
3.6524999999999999,-0.017717879265546799,
3.6549999999999998,-0.019328594207763672,
3.6575000000000002,-0.023776095360517502,
3.6600000000000001,-0.025963783264160156,
3.6625000000000001,-0.027646621689200401,
3.665,-0.028488039970397949,
3.6675,-0.026516716927289963,
3.6699999999999999,-0.023439526557922363,
3.6724999999999999,-0.019040107727050781,
3.6749999999999998,-0.013510784134268761,
3.6775000000000002,-0.00064909458160400391,
3.6800000000000002,0.0057937703095376492,
3.6825000000000001,0.011635622009634972,
3.6850000000000001,0.016443729400634766,
3.6875,0.021780729293823242,
3.6899999999999999,0.022021135315299034,
3.6924999999999999,0.02062678337097168,
3.6949999999999998,0.017741918563842773,
3.6974999999999998,0.0085343923419713974,
3.7000000000000002,0.0027887027245014906,
3.7025000000000001,-0.0033175945281982422,
3.7050000000000001,-0.0094719734042882919,
3.7075,-0.020987391471862793,
3.71,-0.02598782442510128,
3.7124999999999999,-0.030339162796735764,
3.7149999999999999,-0.033993326127529144,
3.7174999999999998,-0.03937840461730957,
3.7200000000000002,-0.041229527443647385,
3.7225000000000001,-0.042720042169094086,
3.7250000000000001,-0.043922066688537598,
3.7275,-0.045917432755231857,
3.73,-0.046758852899074554,
3.7324999999999999,-0.047383904457092285,
3.7349999999999999,-0.047696433961391449,
3.7374999999999998,-0.046638648957014084,
3.7400000000000002,-0.045051973313093185,
3.7425000000000002,-0.042792163789272308,
3.7450000000000001,-0.040099620819091797,
3.7475000000000001,-0.035435758531093597,
3.75,-0.034954946488142014,
3.7524999999999999,-0.036854147911071777,
3.7549999999999999,-0.041998825967311859,
3.7574999999999998,-0.064164206385612488,
3.7599999999999998,-0.081401273608207703,
3.7625000000000002,-0.10200401395559311,
3.7650000000000001,-0.12469828128814697,
3.7675000000000001,-0.16864439845085144,
3.77,-0.18489579856395721,
3.7725,-0.19359847903251648,
3.7749999999999999,-0.19189159572124481,
3.7774999999999999,-0.14736852049827576,
3.7799999999999998,-0.10104238986968994,
3.7825000000000002,-0.03783981129527092,
3.7850000000000001,0.041518013924360275,
3.7875000000000001,0.23908317089080811,
3.79,0.34916481375694275,
3.7925,0.45943877100944519,
3.7949999999999999,0.56336605548858643,
3.7974999999999999,0.72527909278869629,
3.7999999999999998,0.77117246389389038,
3.8025000000000002,0.78773641586303711,
3.8050000000000002,0.77292740345001221,
3.8075000000000001,0.65277278423309326,
3.8100000000000001,0.55507206916809082,
3.8125,0.44066309928894043,
3.8149999999999999,0.31752747297286987,
3.8174999999999999,0.077747106552124023,
3.8199999999999998,-0.024353068321943283,
3.8224999999999998,-0.10748525708913803,
3.8250000000000002,-0.16893288493156433,
3.8275000000000001,-0.22675037384033203,
3.8300000000000001,-0.22785624861717224,
3.8325,-0.21566769480705261,
3.835,-0.19487261772155762,
3.8374999999999999,-0.14482021331787109,
3.8399999999999999,-0.1222461462020874,
3.8424999999999998,-0.10399937629699707,
3.8450000000000002,-0.090680919587612152,
3.8475000000000001,-0.077122054994106293,
3.8500000000000001,-0.074621841311454773,
3.8525,-0.073275566101074219,
3.855,-0.071881219744682312,
3.8574999999999999,-0.066255733370780945,
3.8599999999999999,-0.061519742012023926,
3.8624999999999998,-0.055774055421352386,
3.8650000000000002,-0.049379270523786545,
3.8675000000000002,-0.036733947694301605,
3.8700000000000001,-0.031252704560756683,
3.8725000000000001,-0.026684999465942383,
3.875,-0.02307891845703125,
3.8774999999999999,-0.018415054306387901,
3.8799999999999999,-0.017020702362060547,
3.8824999999999998,-0.015986960381269455,
3.8849999999999998,-0.015169581398367882,
3.8875000000000002,-0.013703107833862305,
3.8900000000000001,-0.012957851402461529,
3.8925000000000001,-0.01216451358050108,
3.895,-0.011347135528922081,
3.8975,-0.0094719734042882919,
3.8999999999999999,-0.0083420677110552788,
3.9024999999999999,-0.0069957971572875977,
3.9049999999999998,-0.0053369998931884766,
3.9075000000000002,-0.00093758106231689453,
3.9100000000000001,0.0018270810833200812,
3.9125000000000001,0.0049042701721191406,
3.915,0.0081737842410802841,
3.9175,0.014664730057120323,
3.9199999999999999,0.017549594864249229,
3.9224999999999999,0.0200017299503088,
3.9249999999999998,0.021949013695120811,
3.9275000000000002,0.024401148781180382,
3.9300000000000002,0.025122364982962608,
3.9325000000000001,0.025747418403625488,
3.9350000000000001,0.026540756225585938,
3.9375,0.029473703354597092,
3.9399999999999999,0.031925838440656662,
3.9424999999999999,0.035147272050380707,
3.9449999999999998,0.03908991813659668,
3.9474999999999998,0.048561893403530121,
3.9500000000000002,0.053682528436183929,
3.9525000000000001,0.058803163468837738,
3.9550000000000001,0.063707433640956879,
3.9575,0.072458192706108093,
3.96,0.07630467414855957,
3.9624999999999999,0.079910755157470703,
3.9649999999999999,0.08349280059337616,
3.9674999999999998,0.091354057192802429,
3.9700000000000002,0.096017919480800629,
3.9725000000000001,0.10133087635040283,
3.9750000000000001,0.10731697082519531,
3.9775,0.12099604308605194,
3.98,0.12832841277122498,
3.9824999999999999,0.13568481802940369,
3.9849999999999999,0.14280080795288086,
3.9874999999999998,0.15539805591106415,
3.9900000000000002,0.1605667769908905,
3.9925000000000002,0.16491810977458954,
3.9950000000000001,0.168500155210495,
3.9975000000000001,0.1737169474363327,
4,0.17566423118114471,90.056289672851562
4.0025000000000004,0.17737111449241638,
4.0049999999999999,0.17895779013633728,
4.0075000000000003,0.18174648284912109,
4.0099999999999998,0.18290042877197266,
4.0125000000000002,0.18371781706809998,
4.0149999999999997,0.18403033912181854,
4.0175000000000001,0.18246769905090332,
4.0199999999999996,0.18030405044555664,
4.0225,0.17703454196453094,
4.0250000000000004,0.17263512313365936,
4.0274999999999999,0.16049465537071228,
4.0300000000000002,0.15289783477783203,
4.0324999999999998,0.14445960521697998,
4.0350000000000001,0.1353001594543457,
4.0374999999999996,0.1155388355255127,
4.04,0.10520140826702118,
4.0425000000000004,0.09476780891418457,
4.0449999999999999,0.084262095391750336,
4.0475000000000003,0.063322782516479492,
4.0499999999999998,0.052913229912519455,
4.0525000000000002,0.042551755905151367,
4.0549999999999997,0.032238364219665527,
4.0575000000000001,0.012044310569763184,
4.0599999999999996,0.0023319325409829617,
4.0625,-0.0069477162323892117,
4.0650000000000004,-0.015626352280378342,
4.0674999999999999,-0.030627649277448654,
4.0700000000000003,-0.036733947694301605,
4.0724999999999998,-0.041830539703369141,
4.0750000000000002,-0.04598955437541008,
4.0774999999999997,-0.051951609551906586,
4.0800000000000001,-0.054115258157253265,
4.0824999999999996,-0.055990420281887054,
4.085,-0.057793460786342621,
4.0875000000000004,-0.061663985252380371,
4.0899999999999999,-0.063851676881313324,
4.0925000000000002,-0.066183611750602722,
4.0949999999999998,-0.068539582192897797,
4.0975000000000001,-0.072866879403591156,
4.0999999999999996,-0.07454971969127655,
4.1025,-0.075751744210720062,
4.1050000000000004,-0.076472960412502289,
4.1074999999999999,-0.076497003436088562,
4.1100000000000003,-0.075992152094841003,
4.1124999999999998,-0.075343057513237,
4.1150000000000002,-0.074693962931632996,
4.1174999999999997,-0.0738525390625,
4.1200000000000001,-0.073804460465908051,
4.1224999999999996,-0.074020825326442719,
4.125,-0.074453555047512054,
4.1275000000000004,-0.07567962259054184,
4.1299999999999999,-0.07630467414855957,
4.1325000000000003,-0.076833568513393402,
4.1349999999999998,-0.077218219637870789,
4.1375000000000002,-0.077482663094997406,
4.1399999999999997,-0.077434584498405457,
4.1425000000000001,-0.077314376831054688,
4.1449999999999996,-0.077122054994106293,
4.1475,-0.076809525489807129,
4.1500000000000004,-0.076689325273036957,
4.1524999999999999,-0.076593160629272461,
4.1550000000000002,-0.076497003436088562,
4.1574999999999998,-0.076160430908203125,
4.1600000000000001,-0.075799822807312012,
4.1624999999999996,-0.075246892869472504,
4.165,-0.074453555047512054,
4.1675000000000004,-0.072049498558044434,
4.1699999999999999,-0.070438787341117859,
4.1725000000000003,-0.068635746836662292,
4.1749999999999998,-0.066712498664855957,
4.1775000000000002,-0.062890052795410156,
4.1799999999999997,-0.061279337853193283,
4.1825000000000001,-0.059981148689985275,
4.1849999999999996,-0.059067606925964355,
4.1875,-0.058418512344360352,
4.1900000000000004,-0.058538716286420822,
4.1924999999999999,-0.058779120445251465,
4.1950000000000003,-0.059019528329372406,
4.1974999999999998,-0.058803163468837738,
4.2000000000000002,-0.058154068887233734,
4.2024999999999997,-0.057072244584560394,
4.2050000000000001,-0.055581729859113693,
4.2074999999999996,-0.05185544490814209,
4.21,-0.049884121865034103,
4.2125000000000004,-0.048032999038696289,
4.2149999999999999,-0.046422284096479416,
4.2175000000000002,-0.044258635491132736,
4.2199999999999998,-0.043753784149885178,
4.2225000000000001,-0.043585501611232758,
4.2249999999999996,-0.04365762323141098,
4.2275,-0.044186513870954514,
4.2300000000000004,-0.044450961053371429,
4.2324999999999999,-0.044595204293727875,
4.2350000000000003,-0.044595204293727875,
4.2374999999999998,-0.044066309928894043,
4.2400000000000002,-0.043561458587646484,
4.2424999999999997,-0.042936407029628754,
4.2450000000000001,-0.042263269424438477,
4.2474999999999996,-0.041037201881408691,
4.25,-0.040604472160339355,
4.2525000000000004,-0.040364068001508713,
4.2549999999999999,-0.040340028703212738,
4.2575000000000003,-0.040917001664638519,
4.2599999999999998,-0.041469931602478027,
4.2625000000000002,-0.042143069207668304,
4.2649999999999997,-0.042888324707746506,
4.2675000000000001,-0.044282674789428711,
4.2699999999999996,-0.044811569154262543,
4.2725,-0.045148134231567383,
4.2750000000000004,-0.045292377471923828,
4.2774999999999999,-0.04490773007273674,
4.2800000000000002,-0.044426918029785156,
4.2824999999999998,-0.043801866471767426,
4.2850000000000001,-0.043128728866577148,
4.2874999999999996,-0.041902661323547363,
4.29,-0.041493974626064301,
4.2925000000000004,-0.041325688362121582,
4.2949999999999999,-0.041421853005886078,
4.2975000000000003,-0.042359434068202972,
4.2999999999999998,-0.043104689568281174,
4.3025000000000002,-0.043922066688537598,
4.3049999999999997,-0.044763486832380295,
4.3075000000000001,-0.046181879937648773,
4.3099999999999996,-0.046686731278896332,
4.3125,-0.047023296356201172,
4.3150000000000004,-0.047215621918439865,
4.3174999999999999,-0.047215621918439865,
4.3200000000000003,-0.047047339379787445,
4.3224999999999998,-0.046782892197370529,
4.3250000000000002,-0.046398244798183441,
4.3274999999999997,-0.045003890991210938,
4.3300000000000001,-0.043946109712123871,
4.3324999999999996,-0.04262387752532959,
4.335,-0.041037201881408691,
4.3375000000000004,-0.037238799035549164,
4.3399999999999999,-0.035171311348676682,
4.3425000000000002,-0.033127866685390472,
4.3449999999999998,-0.029377540573477745,
4.3475000000000001,-0.027814906090497971,
4.3499999999999996,-0.026588838547468185,
4.3525,-0.025723379105329514,
4.3550000000000004,-0.025266608223319054,
4.3574999999999999,-0.025603175163269043,
4.3600000000000003,-0.026372473686933517,
4.3624999999999998,-0.027430256828665733,
4.3650000000000002,-0.028704404830932617,
4.3674999999999997,-0.03106037899851799,
4.3700000000000001,-0.031709473580121994,
4.3724999999999996,-0.031709473580121994,
4.375,-0.028968852013349533,
4.3775000000000004,-0.026011865586042404,
4.3799999999999999,-0.021973054856061935,
4.3825000000000003,-0.017044743523001671,
4.3849999999999998,-0.0054331622086465359,
4.3875000000000002,0.00055293244076892734,
4.3899999999999997,0.0061784191057085991,
4.3925000000000001,0.01105864904820919,
4.3949999999999996,0.017501514405012131,
4.3975,0.018655460327863693,
4.4000000000000004,0.018318891525268555,
4.4024999999999999,0.016539892181754112,
4.4050000000000002,0.0091594457626342773,
4.4074999999999998,0.0039666891098022461,
4.4100000000000001,-0.0018751621246337891,
4.4124999999999996,-0.0081016626209020615,
4.415,-0.02062678337097168,
4.4175000000000004,-0.026492675766348839,
4.4199999999999999,-0.031877756118774414,
4.4225000000000003,-0.036685865372419357,
4.4249999999999998,-0.044499039649963379,
4.4275000000000002,-0.047648351639509201,
4.4299999999999997,-0.050340890884399414,
4.4325000000000001,-0.052696865051984787,
4.4349999999999996,-0.056230824440717697,
4.4375,-0.057264566421508789,
4.4400000000000004,-0.057601135224103928,
4.4424999999999999,-0.057072244584560394,
4.4450000000000003,-0.052865147590637207,
4.4474999999999998,-0.049283109605312347,
4.4500000000000002,-0.045003890991210938,
4.4524999999999997,-0.040556393563747406,
4.4550000000000001,-0.034161608666181564,
4.4574999999999996,-0.033945243805646896,
4.46,-0.036854147911071777,
4.4625000000000004,-0.043585501611232758,
4.4649999999999999,-0.069621406495571136,
4.4675000000000002,-0.088469192385673523,
4.4699999999999998,-0.11010567843914032,
4.4725000000000001,-0.13304035365581512,
4.4749999999999996,-0.17503917217254639,
4.4775,-0.18936733901500702,
4.4800000000000004,-0.19578616321086884,
4.4824999999999999,-0.19177138805389404,
4.4850000000000003,-0.14342586696147919,
4.4874999999999998,-0.095993876457214355,
4.4900000000000002,-0.03231048583984375,
4.4924999999999997,0.046903096139431,
4.4950000000000001,0.24254500865936279,
4.4974999999999996,0.35101592540740967,
4.5,0.4593425989151001,
4.5025000000000004,0.56103408336639404,
4.5049999999999999,0.7178264856338501,
4.5075000000000003,0.76095521450042725,
4.5099999999999998,0.77473044395446777,
4.5125000000000002,0.75727701187133789,
4.5149999999999997,0.70900362730026245,
4.5175000000000001,0.53365194797515869,
4.5199999999999996,0.41852176189422607,
4.5225,0.29526591300964355,
4.5250000000000004,0.056976079940795898,
4.5274999999999999,-0.0438259057700634,
4.5300000000000002,-0.12549161911010742,
4.5324999999999998,-0.18544873595237732,
4.5350000000000001,-0.2405736893415451,
4.5374999999999996,-0.24045348167419434,
4.54,-0.22703886032104492,
4.5425000000000004,-0.20494560897350311,
4.5449999999999999,-0.15169581770896912,
4.5475000000000003,-0.12724658846855164,
4.5499999999999998,-0.10702848434448242,
4.5525000000000002,-0.091834865510463715,
4.5549999999999997,-0.075535379350185394,
4.5575000000000001,-0.072554349899291992,
4.5599999999999996,-0.07140040397644043,
4.5625,-0.070943638682365417,
4.5650000000000004,-0.068707868456840515,
4.5674999999999999,-0.066015325486660004,
4.5700000000000003,-0.06216883659362793,
4.5724999999999998,-0.057288609445095062,
4.5750000000000002,-0.04582127183675766,
4.5774999999999997,-0.039907298982143402,
4.5800000000000001,-0.03430585190653801,
4.5824999999999996,-0.0292332973331213,
4.585,-0.021227797493338585,
4.5875000000000004,-0.018366973847150803,
4.5899999999999999,-0.016251405701041222,
4.5925000000000002,-0.014712810516357422,
4.5949999999999998,-0.01276552677154541,
4.5975000000000001,-0.011996230110526085,
4.5999999999999996,-0.011106729507446289,
4.6025,-0.0099287433549761772,
4.6050000000000004,-0.0064909458160400391,
4.6074999999999999,-0.0042070946656167507,
4.6100000000000003,-0.0016828378429636359,
4.6124999999999998,0.00098566222004592419,
4.6150000000000002,0.0061303377151489258,
4.6174999999999997,0.0083661079406738281,
4.6200000000000001,0.010337432846426964,
4.6224999999999996,0.012068351730704308,
4.625,0.01521766185760498,
4.6275000000000004,0.016876459121704102,
4.6299999999999999,0.018775662407279015,
4.6325000000000003,0.021011432632803917,
4.6349999999999998,0.026468634605407715,
4.6375000000000002,0.029545824974775314,
4.6399999999999997,0.032719176262617111,
4.6425000000000001,0.035796366631984711,
4.6449999999999996,0.041325688362121582,
4.6475,0.043681662529706955,
4.6500000000000004,0.045797228813171387,
4.6524999999999999,0.047792594879865646,
4.6550000000000002,0.052167974412441254,
4.6574999999999998,0.054884552955627441,
4.6600000000000001,0.058154068887233734,
4.6624999999999996,0.062072675675153732,
4.665,0.071905255317687988,
4.6675000000000004,0.077699027955532074,
4.6699999999999999,0.083901487290859222,
4.6725000000000003,0.090440511703491211,
4.6749999999999998,0.1038791760802269,
4.6775000000000002,0.11058648675680161,
4.6799999999999997,0.11714955419301987,
4.6825000000000001,0.12352029979228973,
4.6849999999999996,0.13551652431488037,
4.6875,0.14106988906860352,
4.6900000000000004,0.14626264572143555,
4.6924999999999999,0.15107075870037079,
4.6950000000000003,0.15950898826122284,
4.6974999999999998,0.16318719089031219,
4.7000000000000002,0.16657690703868866,
4.7024999999999997,0.16972622275352478,
4.7050000000000001,0.17566423118114471,
4.7074999999999996,0.1785731315612793,
4.71,0.18148204684257507,
4.7125000000000004,0.18431882560253143,
4.7149999999999999,0.18948754668235779,
4.7175000000000002,0.1915309876203537,
4.7199999999999998,0.1930215060710907,
4.7225000000000001,0.19374272227287292,
4.7249999999999996,0.19234836101531982,
4.7275,0.19001643359661102,
4.7300000000000004,0.18650650978088379,
4.7324999999999999,0.18181860446929932,
4.7350000000000003,0.16907712817192078,
4.7374999999999998,0.16121587157249451,
4.7400000000000002,0.15248915553092957,
4.7424999999999997,0.14306525886058807,
4.7450000000000001,0.12260675430297852,
4.7474999999999996,0.11188467592000961,
4.75,0.10097026824951172,
4.7525000000000004,0.089959703385829926,
4.7549999999999999,0.067986652255058289,
4.7575000000000003,0.057144366204738617,
4.7599999999999998,0.046422284096479416,
4.7625000000000002,0.035892527550458908,
4.7649999999999997,0.01567443273961544,
4.7675000000000001,0.0061543784104287624,
4.7699999999999996,-0.0028367838822305202,
4.7725,-0.011130770668387413,
4.7750000000000004,-0.02524256706237793,
4.7774999999999999,-0.030844014137983322,
4.7800000000000002,-0.035459797829389572,
4.7824999999999998,-0.03908991813659668,
4.7850000000000001,-0.0438259057700634,
4.7874999999999996,-0.045292377471923828,
4.79,-0.046446323394775391,
4.7925000000000004,-0.04752814769744873,
4.7949999999999999,-0.050196647644042969,
4.7975000000000003,-0.05197564885020256,
4.7999999999999998,-0.054091215133666992,
4.8025000000000002,-0.05647122859954834,
4.8049999999999997,-0.06137549877166748,
4.8075000000000001,-0.06353914737701416,
4.8099999999999996,-0.065294109284877777,
4.8125,-0.066496133804321289,
4.8150000000000004,-0.067193314433097839,
4.8174999999999999,-0.06678462028503418,
4.8200000000000003,-0.066015325486660004,
4.8224999999999998,-0.065077744424343109,
4.8250000000000002,-0.063298746943473816,
4.8274999999999997,-0.062697730958461761,
4.8300000000000001,-0.062385201454162598,
4.8324999999999996,-0.062361162155866623,
4.835,-0.062986217439174652,
4.8375000000000004,-0.063467025756835938,
4.8399999999999999,-0.06394784152507782,
4.8425000000000002,-0.064308449625968933,
4.8449999999999998,-0.064476728439331055,
4.8475000000000001,-0.064260363578796387,
4.8499999999999996,-0.063899755477905273,
4.8525,-0.063442990183830261,
4.8550000000000004,-0.062529444694519043,
4.8574999999999999,-0.062216918915510178,
4.8600000000000003,-0.062096714973449707,
4.8624999999999998,-0.062144797295331955,
4.8650000000000002,-0.062601566314697266,
4.8674999999999997,-0.062817931175231934,
4.8700000000000001,-0.062890052795410156,
4.8724999999999996,-0.062625609338283539,
4.875,-0.060822568833827972,
4.8775000000000004,-0.059139728546142578,
4.8799999999999999,-0.056976079940795898,
4.8825000000000003,-0.054403744637966156,
4.8849999999999998,-0.048802297562360764,
4.8875000000000002,-0.0461578369140625,
4.8899999999999997,-0.043873988091945648,
4.8925000000000001,-0.042094986885786057,
4.8949999999999996,-0.040436189621686935,
4.8975,-0.040532350540161133,
4.9000000000000004,-0.041109323501586914,
4.9024999999999999,-0.042022865265607834,
4.9050000000000002,-0.044138431549072266,
4.9074999999999998,-0.044979851692914963,
4.9100000000000001,-0.045532785356044769,
4.9124999999999996,-0.045677028596401215,
4.915,-0.044715404510498047,
4.9175000000000004,-0.043681662529706955,
4.9199999999999999,-0.042359434068202972,
4.9225000000000003,-0.040868919342756271,
4.9249999999999998,-0.037719607353210449,
4.9275000000000002,-0.036229096353054047,
4.9299999999999997,-0.034882824867963791,
4.9325000000000001,-0.033704839646816254,
4.9349999999999996,-0.031901799142360687,
4.9375,-0.031252704560756683,
4.9400000000000004,-0.030771892517805099,
4.9424999999999999,-0.030387243255972862,
4.9450000000000003,-0.030122797936201096,
4.9474999999999998,-0.029786229133605957,
4.9500000000000002,-0.029738148674368858,
4.9524999999999997,-0.029738148674368858,
4.9550000000000001,-0.029906433075666428,
4.9574999999999996,-0.030074715614318848,
4.96,-0.030291080474853516,
4.9625000000000004,-0.030483406037092209,
4.9649999999999999,-0.030795931816101074,
4.9675000000000002,-0.030892094597220421,
4.9699999999999998,-0.030916135758161545,
4.9725000000000001,-0.030916135758161545,
4.9749999999999996,-0.030795931816101074,
4.9775,-0.030747851356863976,
4.9800000000000004,-0.030699770897626877,
4.9824999999999999,-0.030627649277448654,
4.9850000000000003,-0.030339162796735764,
4.9874999999999998,-0.030026635155081749,
4.9900000000000002,-0.029593905434012413,
4.9924999999999997,-0.029016932472586632,
4.9950000000000001,-0.027622580528259277,
4.9974999999999996,-0.026949446648359299,
5,-0.026420554146170616,88.560882568359375
5.0025000000000004,-0.026132067665457726,
5.0049999999999999,-0.026492675766348839,
5.0075000000000003,-0.027165811508893967,
5.0099999999999998,-0.028079351410269737,
5.0125000000000002,-0.029137134552001953,
5.0149999999999997,-0.031084418296813965,
5.0175000000000001,-0.031685434281826019,
5.0199999999999996,-0.031877756118774414,
5.0225,-0.031685434281826019,
5.0250000000000004,-0.030194919556379318,
5.0274999999999999,-0.029137134552001953,
5.0300000000000002,-0.028055310249328613,
5.0324999999999998,-0.027117729187011719,
5.0350000000000001,-0.026108026504516602,
5.0374999999999996,-0.026156108826398849,
5.04,-0.026492675766348839,
5.0425000000000004,-0.02706964872777462,
5.0449999999999999,-0.027718743309378624,
5.0475000000000003,-0.028752487152814865,
5.0499999999999998,-0.02889673039317131,
5.0525000000000002,-0.028728445991873741,
5.0549999999999997,-0.028199553489685059,
5.0575000000000001,-0.026468634605407715,
5.0599999999999996,-0.025434892624616623,
5.0625,-0.024473270401358604,
5.0650000000000004,-0.02307891845703125,
5.0674999999999999,-0.022742351517081261,
5.0700000000000003,-0.022598108276724815,
5.0724999999999998,-0.022598108276724815,
5.0750000000000002,-0.022574067115783691,
5.0774999999999997,-0.022285580635070801,
5.0800000000000001,-0.021684568375349045,
5.0824999999999996,-0.020722946152091026,
5.085,-0.017669796943664551,
5.0875000000000004,-0.015722513198852539,
5.0899999999999999,-0.013655027374625206,
5.0925000000000002,-0.011611580848693848,
5.0949999999999998,-0.0081737842410802841,
5.0975000000000001,-0.0070198378525674343,
5.0999999999999996,-0.0063467025756835938,
5.1025,-0.0061543784104287624,
5.1050000000000004,-0.007140040397644043,
5.1074999999999999,-0.0081497430801391602,
5.1100000000000003,-0.009351770393550396,
5.1124999999999998,-0.01060187816619873,
5.1150000000000002,-0.012597243301570415,
5.1174999999999997,-0.012981891632080078,
5.1200000000000001,-0.012717446312308311,
5.1224999999999996,-0.011659662239253521,
5.125,-0.0066351890563964844,
5.1275000000000004,-0.0026204190216958523,
5.1299999999999999,0.0023319325409829617,
5.1325000000000003,0.0080535812303423882,
5.1349999999999998,0.020650824531912804,
5.1375000000000002,0.026805203408002853,
5.1399999999999997,0.032262407243251801,
5.1425000000000001,0.036685865372419357,
5.1449999999999996,0.041085284203290939,
5.1475,0.040676593780517578,
5.1500000000000004,0.038488905876874924,
5.1524999999999999,0.034618377685546875,
5.1550000000000002,0.022958716377615929,
5.1574999999999998,0.015890797600150108,
5.1600000000000001,0.0085343923419713974,
5.1624999999999996,0.0012260675430297852,
5.165,-0.011876027099788189,
5.1675000000000004,-0.017261108383536339,
5.1699999999999999,-0.021804770454764366,
5.1725000000000003,-0.025482973083853722,
5.1749999999999998,-0.030723810195922852,
5.1775000000000002,-0.032550893723964691,
5.1799999999999997,-0.033993326127529144,
5.1825000000000001,-0.035123229026794434,
5.1849999999999996,-0.036373339593410492,
5.1875,-0.036325257271528244,
5.1900000000000004,-0.035652123391628265,
5.1924999999999999,-0.034281812608242035,
5.1950000000000003,-0.029425621032714844,
5.1974999999999998,-0.026348432525992393,
5.2000000000000002,-0.023367404937744141,
5.2024999999999997,-0.021131634712219238,
5.2050000000000001,-0.021804770454764366,
5.2074999999999996,-0.026276310905814171,
5.21,-0.034353934228420258,
5.2125000000000004,-0.046326123178005219,
5.2149999999999999,-0.081305108964443207,
5.2175000000000002,-0.10277330875396729,
5.2199999999999998,-0.12503485381603241,
5.2225000000000001,-0.14604628086090088,
5.2249999999999996,-0.17458240687847137,
5.2275,-0.17669796943664551,
5.2300000000000004,-0.16717791557312012,
5.2324999999999999,-0.14373838901519775,
5.2350000000000003,-0.049138866364955902,
5.2374999999999998,0.022742351517081261,
5.2400000000000002,0.10952870547771454,
5.2424999999999997,0.20847956836223602,
5.2450000000000001,0.42556565999984741,
5.2474999999999996,0.53230565786361694,
5.25,0.62911689281463623,
5.2525000000000004,0.70938825607299805,
5.2549999999999999,0.79761707782745361,
5.2575000000000003,0.79780936241149902,
5.2599999999999998,0.7668691873550415,
5.2625000000000002,0.70631110668182373,
5.2649999999999997,0.51353001594543457,
5.2675000000000001,0.39436101913452148,
5.2699999999999996,0.27043205499649048,
5.2725,0.14972448348999023,
5.2750000000000004,-0.054620109498500824,
5.2774999999999999,-0.12866497039794922,
5.2800000000000002,-0.18092910945415497,
5.2824999999999998,-0.21179716289043427,
5.2850000000000001,-0.21927377581596375,
5.2874999999999996,-0.20367145538330078,
5.29,-0.18104931712150574,
5.2925000000000004,-0.15554229915142059,
5.2949999999999999,-0.10837475955486298,
5.2975000000000003,-0.090440511703491211,
5.2999999999999998,-0.07704993337392807,
5.3025000000000002,-0.067842409014701843,
5.3049999999999997,-0.058130025863647461,
5.3075000000000001,-0.055437486618757248,
5.3099999999999996,-0.052961312234401703,
5.3125,-0.050172608345746994,
5.3150000000000004,-0.042816203087568283,
5.3174999999999999,-0.038488905876874924,
5.3200000000000003,-0.034065447747707367,
5.3224999999999998,-0.029762189835309982,
5.3250000000000002,-0.022117298096418381,
5.3274999999999997,-0.018751621246337891,
5.3300000000000001,-0.015554229728877544,
5.3324999999999996,-0.012356838211417198,
5.335,-0.0057456893846392632,
5.3375000000000004,-0.0023319325409829617,
5.3399999999999999,0.00098566222004592419,
5.3425000000000002,0.0040388107299804688,
5.3449999999999998,0.0086305541917681694,
5.3475000000000001,0.0100008649751544,
5.3499999999999996,0.010722081176936626,
5.3525,0.010962486267089844,
5.3550000000000004,0.010818243026733398,
5.3574999999999999,0.010938446037471294,
5.3600000000000003,0.011443297378718853,
5.3624999999999998,0.01247704029083252,
5.3650000000000002,0.016059082001447678,
5.3674999999999997,0.018439095467329025,
5.3700000000000001,0.020987391471862793,
5.3724999999999996,0.023607810959219933,
5.375,0.028536122292280197,
5.3775000000000004,0.030819972977042198,
5.3799999999999999,0.033079784363508224,
5.3825000000000003,0.035435758531093597,
5.3849999999999998,0.040748715400695801,
5.3875000000000002,0.043849945068359375,
5.3899999999999997,0.047215621918439865,
5.3925000000000001,0.05077362060546875,
5.3949999999999996,0.058105986565351486,
5.3975,0.061688028275966644,
5.4000000000000004,0.065101787447929382,
5.4024999999999999,0.068419381976127625,
5.4050000000000002,0.074910327792167664,
5.4074999999999998,0.078348122537136078,
5.4100000000000001,0.08200228214263916,
5.4124999999999996,0.085993014276027679,
5.415,0.095080338418483734,
5.4175000000000004,0.10015289485454559,
5.4199999999999999,0.10551393032073975,
5.4225000000000003,0.11113941669464111,
5.4249999999999998,0.1230875700712204,
5.4275000000000002,0.12941023707389832,
5.4299999999999997,0.13599734008312225,
5.4325000000000001,0.14282485842704773,
5.4349999999999996,0.15700876712799072,
5.4375,0.16412477195262909,
5.4400000000000004,0.17107248306274414,
5.4424999999999999,0.17761151492595673,
5.4450000000000003,0.18883845210075378,
5.4474999999999998,0.19330999255180359,
5.4500000000000002,0.19696414470672607,
5.4524999999999997,0.19994518160820007,
5.4550000000000001,0.20439267158508301,
5.4574999999999996,0.2062678337097168,
5.46,0.20816704630851746,
5.4625000000000004,0.21016240119934082,
5.4649999999999999,0.21451374888420105,
5.4675000000000002,0.21660527586936951,
5.4699999999999998,0.2183842658996582,
5.4725000000000001,0.21953821182250977,
5.4749999999999996,0.21900932490825653,
5.4775,0.21691779792308807,
5.4800000000000004,0.21343192458152771,
5.4824999999999999,0.20852765440940857,
5.4850000000000003,0.19472837448120117,
5.4874999999999998,0.1860257089138031,
5.4900000000000002,0.17633736133575439,
5.4924999999999997,0.16580760478973389,
5.4950000000000001,0.14277677237987518,
5.4974999999999996,0.13058821856975555,
5.5,0.11811117827892303,
5.5025000000000004,0.10551393032073975,
5.5049999999999999,0.08058389276266098,
5.5075000000000003,0.068587660789489746,
5.5099999999999998,0.057072244584560394,
5.5125000000000002,0.046229958534240723,
5.5149999999999997,0.026733081787824631,
5.5175000000000001,0.018174648284912109,
5.5199999999999996,0.010385513305664062,
5.5225,0.0032695136032998562,
5.5250000000000004,-0.0091834869235754013,
5.5274999999999999,-0.014640688896179199,
5.5300000000000002,-0.01966516301035881,
5.5324999999999998,-0.024232864379882812,
5.5350000000000001,-0.031997960060834885,
5.5374999999999996,-0.035195350646972656,
5.54,-0.037887893617153168,
5.5425000000000004,-0.04017174243927002,
5.5449999999999999,-0.043729744851589203,
5.5475000000000003,-0.045220255851745605,
5.5499999999999998,-0.046710770577192307,
5.5525000000000002,-0.04827340692281723,
5.5549999999999997,-0.051903527230024338,
5.5575000000000001,-0.053946971893310547,
5.5599999999999996,-0.056062541902065277,
5.5625,-0.058081947267055511,
5.5650000000000004,-0.061231255531311035,
5.5674999999999999,-0.06212075799703598,
5.5700000000000003,-0.062409244477748871,
5.5724999999999998,-0.062096714973449707,
5.5750000000000002,-0.059933066368103027,
5.5774999999999997,-0.058322351425886154,
5.5800000000000001,-0.05659143254160881,
5.5824999999999996,-0.054884552955627441,
5.585,-0.05214393138885498,
5.5875000000000004,-0.051278471946716309,
5.5899999999999999,-0.05077362060546875,
5.5925000000000002,-0.05060533806681633,
5.5949999999999998,-0.050989985466003418,
5.5975000000000001,-0.051374636590480804,
5.5999999999999996,-0.051783323287963867,
5.6025,-0.05214393138885498,
5.6050000000000004,-0.052552621811628342,
5.6074999999999999,-0.052576661109924316,
5.6100000000000003,-0.052504539489746094,
5.6124999999999998,-0.052288174629211426,
5.6150000000000002,-0.05168716236948967,
5.6174999999999997,-0.051302514970302582,
5.6200000000000001,-0.050917863845825195,
5.6224999999999996,-0.050533216446638107,
5.625,-0.049739878624677658,
5.6275000000000004,-0.04935523122549057,
5.6299999999999999,-0.048946540802717209,
5.6325000000000003,-0.048513811081647873,
5.6349999999999998,-0.04752814769744873,
5.6375000000000002,-0.046975217759609222,
5.6399999999999997,-0.046374201774597168,
5.6425000000000001,-0.045749150216579437,
5.6449999999999996,-0.044450961053371429,
5.6475,-0.043849945068359375,
5.6500000000000004,-0.043272972106933594,
5.6524999999999999,-0.042768120765686035,
5.6550000000000002,-0.041902661323547363,
5.6574999999999998,-0.041445892304182053,
5.6600000000000001,-0.040917001664638519,
5.6624999999999996,-0.040267907083034515,
5.665,-0.038464866578578949,
5.6675000000000004,-0.037286877632141113,
5.6699999999999999,-0.035964649170637131,
5.6725000000000003,-0.034618377685546875,
5.6749999999999998,-0.032190285623073578,
5.6775000000000002,-0.031348865479230881,
5.6799999999999997,-0.030844014137983322,
5.6825000000000001,-0.030747851356863976,
5.6849999999999996,-0.031661391258239746,
5.6875,-0.032478772103786469,
5.6900000000000004,-0.033368270844221115,
5.6924999999999999,-0.034209690988063812,
5.6950000000000003,-0.035195350646972656,
5.6974999999999998,-0.035171311348676682,
5.7000000000000002,-0.034786663949489594,
5.7024999999999997,-0.034041404724121094,
5.7050000000000001,-0.031829677522182465,
5.7074999999999996,-0.030579566955566406,
5.71,-0.029377540573477745,
5.7125000000000004,-0.028343796730041504,
5.7149999999999999,-0.027093689888715744,
5.7175000000000002,-0.026997527107596397,
5.7199999999999998,-0.027310054749250412,
5.7225000000000001,-0.027983188629150391,
5.7249999999999996,-0.030267041176557541,
5.7275,-0.031685434281826019,
5.7300000000000004,-0.033127866685390472,
5.7324999999999999,-0.03442605584859848,
5.7350000000000003,-0.035964649170637131,
5.7374999999999998,-0.035964649170637131,
5.7400000000000002,-0.035387676209211349,
5.7424999999999997,-0.034281812608242035,
5.7450000000000001,-0.030964216217398643,
5.7474999999999996,-0.029209256172180176,
5.75,-0.027718743309378624,
5.7525000000000004,-0.026709040626883507,
5.7549999999999999,-0.026636919006705284,
5.7575000000000003,-0.027622580528259277,
5.7599999999999998,-0.029113095253705978,
5.7625000000000002,-0.030916135758161545,
5.7649999999999997,-0.034281812608242035,
5.7675000000000001,-0.035411715507507324,
5.7699999999999996,-0.035988688468933105,
5.7725,-0.035964649170637131,
5.7750000000000004,-0.0345943383872509,
5.7774999999999999,-0.033608675003051758,
5.7800000000000002,-0.032647054642438889,
5.7824999999999998,-0.031925838440656662,
5.7850000000000001,-0.031300783157348633,
5.7874999999999996,-0.031324826180934906,
5.79,-0.031445026397705078,
5.7925000000000004,-0.031517148017883301,
5.7949999999999999,-0.03106037899851799,
5.7975000000000003,-0.030483406037092209,
5.7999999999999998,-0.029762189835309982,
5.8025000000000002,-0.029016932472586632,
5.8049999999999997,-0.028007229790091515,
5.8075000000000001,-0.027959149330854416,
5.8099999999999996,-0.028223594650626183,
5.8125,-0.028728445991873741,
5.8150000000000004,-0.029810270294547081,
5.8174999999999999,-0.030050676316022873,
5.8200000000000003,-0.02985835075378418,
5.8224999999999998,-0.029161175712943077,
5.8250000000000002,-0.026564797386527061,
5.8274999999999997,-0.024978121742606163,
5.8300000000000001,-0.023487608879804611,
5.8324999999999996,-0.022333662956953049,
5.835,-0.021612446755170822,
5.8375000000000004,-0.022093256935477257,
5.8399999999999999,-0.022958716377615929,
5.8425000000000002,-0.024016499519348145,
5.8449999999999998,-0.025555094704031944,
5.8475000000000001,-0.025603175163269043,
5.8499999999999996,-0.024954080581665039,
5.8525,-0.023631852120161057,
5.8550000000000004,-0.019448798149824142,
5.8574999999999999,-0.017140906304121017,
5.8600000000000003,-0.015049378387629986,
5.8624999999999998,-0.013462702743709087,
5.8650000000000002,-0.012597243301570415,
5.8674999999999997,-0.013414621353149414,
5.8700000000000001,-0.01492917537689209,
5.8724999999999996,-0.016900500282645226,
5.875,-0.021011432632803917,
5.8775000000000004,-0.022501945495605469,
5.8799999999999999,-0.023223161697387695,
5.8825000000000003,-0.022958716377615929,
5.8849999999999998,-0.019040107727050781,
5.8875000000000002,-0.015409986488521099,
5.8899999999999997,-0.010794202797114849,
5.8925000000000001,-0.0053610405884683132,
5.8949999999999996,0.0069717569276690483,
5.8975,0.013342499732971191,
5.9000000000000004,0.019448798149824142,
5.9024999999999999,0.025002162903547287,
5.9050000000000002,0.033199988305568695,
5.9074999999999998,0.035291515290737152,
5.9100000000000001,0.035748284310102463,
5.9124999999999996,0.03442605584859848,
5.915,0.02644459530711174,
5.9175000000000004,0.020097892731428146,
5.9199999999999999,0.012549161911010742,
5.9225000000000003,0.0042792162857949734,
5.9249999999999998,-0.012549161911010742,
5.9275000000000002,-0.020145973190665245,
5.9299999999999997,-0.026733081787824631,
5.9325000000000001,-0.032046042382717133,
5.9349999999999996,-0.03875335305929184,
5.9375,-0.040436189621686935,
5.9400000000000004,-0.041325688362121582,
5.9424999999999999,-0.041710339486598969,
5.9450000000000003,-0.042022865265607834,
5.9474999999999998,-0.042191147804260254,
5.9500000000000002,-0.042335391044616699,
5.9524999999999997,-0.042335391044616699,
5.9550000000000001,-0.041061244904994965,
5.9574999999999996,-0.039474569261074066,
5.96,-0.037262838333845139,
5.9625000000000004,-0.034642420709133148,
5.9649999999999999,-0.030291080474853516,
5.9675000000000002,-0.030002593994140625,
5.9699999999999998,-0.03214220330119133,
5.9725000000000001,-0.037503242492675781,
5.9749999999999996,-0.059957109391689301,
5.9775,-0.077122054994106293,
5.9800000000000004,-0.097460351884365082,
5.9824999999999999,-0.11962573230266571,
5.9850000000000003,-0.16145627200603485,
5.9874999999999998,-0.1760488748550415,
5.9900000000000002,-0.18256387114524841,
5.9924999999999997,-0.17814040184020996,
5.9950000000000001,-0.12662152945995331,
5.9974999999999996,-0.076184473931789398,
6,-0.0086305541917681694,86.242294311523438
6.0025000000000004,0.074982449412345886,
6.0049999999999999,0.27956745028495789,
6.0075000000000003,0.39174062013626099,
6.0099999999999998,0.50266367197036743,
6.0125000000000002,0.60565334558486938,
6.0149999999999997,0.76061868667602539,
6.0175000000000001,0.80076634883880615,
6.0199999999999996,0.81052684783935547,
6.0225,0.78833740949630737,
6.0250000000000004,0.65351808071136475,
6.0274999999999999,0.54949462413787842,
6.0300000000000002,0.42994102835655212,
6.0324999999999998,0.30293485522270203,
6.0350000000000001,0.059380136430263519,
6.0374999999999996,-0.04291236400604248,
6.04,-0.12544354796409607,
6.0425000000000004,-0.18568913638591766,
6.0449999999999999,-0.24018904566764832,
6.0475000000000003,-0.23934762179851532,
6.0499999999999998,-0.22511562705039978,
6.0525000000000002,-0.20208477973937988,
6.0549999999999997,-0.1469598263502121,
6.0575000000000001,-0.12157301604747772,
6.0599999999999996,-0.10041733831167221,
6.0625,-0.084262095391750336,
6.0650000000000004,-0.065919160842895508,
6.0674999999999999,-0.061880350112915039,
6.0700000000000003,-0.059716701507568359,
6.0724999999999998,-0.058370433747768402,
6.0750000000000002,-0.055004756897687912,
6.0774999999999997,-0.052288174629211426,
6.0800000000000001,-0.048826336860656738,
6.0824999999999996,-0.04478752613067627,
6.085,-0.036060810089111328,
6.0875000000000004,-0.031829677522182465,
6.0899999999999999,-0.027887027710676193,
6.0925000000000002,-0.024256905540823936,
6.0949999999999998,-0.017910202965140343,
6.0975000000000001,-0.015073418617248535,
6.0999999999999996,-0.01245300006121397,
6.1025,-0.0099768247455358505,
6.1050000000000004,-0.0056254863739013672,
6.1074999999999999,-0.0037984054069966078,
6.1100000000000003,-0.002283851383253932,
6.1124999999999998,-0.001033743261359632,
6.1150000000000002,0.00069717568112537265,
6.1174999999999997,0.0012741487007588148,
6.1200000000000001,0.0018030405044555664,
6.1224999999999996,0.0023559730034321547,
6.125,0.0039186081849038601,
6.1275000000000004,0.0050485134124755859,
6.1299999999999999,0.0064909458160400391,
6.1325000000000003,0.0082218647003173828,
6.1349999999999998,0.012549161911010742,
6.1375000000000002,0.015073418617248535,
6.1399999999999997,0.017790000885725021,
6.1425000000000001,0.02062678337097168,
6.1449999999999996,0.02661287784576416,
6.1475,0.02969006821513176,
6.1500000000000004,0.032815337181091309,
6.1524999999999999,0.035964649170637131,
6.1550000000000002,0.042383473366498947,
6.1574999999999998,0.045701067894697189,
6.1600000000000001,0.049138866364955902,
6.1624999999999996,0.052672825753688812,
6.165,0.060173474252223969,
6.1675000000000004,0.064140163362026215,
6.1699999999999999,0.068227052688598633,
6.1725000000000003,0.072410106658935547,
6.1749999999999998,0.081016622483730316,
6.1775000000000002,0.085391998291015625,
6.1799999999999997,0.089839503169059753,
6.1825000000000001,0.094359122216701508,
6.1849999999999996,0.10373493283987045,
6.1875,0.10866324603557587,
6.1900000000000004,0.11378388106822968,
6.1924999999999999,0.11912088096141815,
6.1950000000000003,0.13032376766204834,
6.1974999999999998,0.1361415833234787,
6.2000000000000002,0.14200747013092041,
6.2024999999999997,0.14784932136535645,
6.2050000000000001,0.15919646620750427,
6.2074999999999996,0.16462962329387665,
6.21,0.16982237994670868,
6.2125000000000004,0.17484685778617859,
6.2149999999999999,0.18429479002952576,
6.2175000000000002,0.18874228000640869,
6.2199999999999998,0.19299745559692383,
6.2225000000000001,0.19698819518089294,
6.2249999999999996,0.20388782024383545,
6.2275,0.20648419857025146,
6.2300000000000004,0.20833532512187958,
6.2324999999999999,0.2092488706111908,
6.2350000000000003,0.20773431658744812,
6.2374999999999998,0.2051379382610321,
6.2400000000000002,0.20124337077140808,
6.2424999999999997,0.19612273573875427,
6.2450000000000001,0.18241962790489197,
6.2474999999999996,0.17407755553722382,
6.25,0.16489407420158386,
6.2525000000000004,0.15496532618999481,
6.2549999999999999,0.13347308337688446,
6.2575000000000003,0.12207786738872528,
6.2599999999999998,0.11041820049285889,
6.2625000000000002,0.098614297807216644,
6.2649999999999997,0.07493436336517334,
6.2675000000000001,0.063298746943473816,
6.2699999999999996,0.051951609551906586,
6.2725,0.040989123284816742,
6.2750000000000004,0.020506581291556358,
6.2774999999999999,0.01108268927782774,
6.2800000000000002,0.002259810920804739,
6.2824999999999998,-0.0059620542451739311,
6.2850000000000001,-0.020578702911734581,
6.2874999999999996,-0.026973485946655273,
6.29,-0.032815337181091309,
6.2925000000000004,-0.038104258477687836,
6.2949999999999999,-0.047215621918439865,
6.2975000000000003,-0.051134228706359863,
6.2999999999999998,-0.054692231118679047,
6.3025000000000002,-0.057961743324995041,
6.3049999999999997,-0.063659355044364929,
6.3075000000000001,-0.066087447106838226,
6.3099999999999996,-0.068251095712184906,
6.3125,-0.070078179240226746,
6.3150000000000004,-0.072698593139648438,
6.3174999999999999,-0.073419809341430664,
6.3200000000000003,-0.073756381869316101,
6.3224999999999998,-0.073732338845729828,
6.3250000000000002,-0.072866879403591156,
6.3274999999999997,-0.072193741798400879,
6.3300000000000001,-0.071520611643791199,
6.3324999999999996,-0.070583030581474304,
6.335,-0.070486865937709808,
6.3375000000000004,-0.070655152201652527,
6.3399999999999999,-0.071160003542900085,
6.3425000000000002,-0.072818800806999207,
6.3449999999999998,-0.073828503489494324,
6.3475000000000001,-0.074838206171989441,
6.3499999999999996,-0.075751744210720062,
6.3525,-0.077146098017692566,
6.3550000000000004,-0.077554784715175629,
6.3574999999999999,-0.07779519259929657,
6.3600000000000003,-0.077867314219474792,
6.3624999999999998,-0.077506706118583679,
6.3650000000000002,-0.07704993337392807,
6.3674999999999997,-0.076376795768737793,
6.3700000000000001,-0.075391136109828949,
6.3724999999999996,-0.07243414968252182,
6.375,-0.070486865937709808,
6.3775000000000004,-0.068323217332363129,
6.3799999999999999,-0.066087447106838226,
6.3825000000000003,-0.06394784152507782,
6.3849999999999998,-0.06075044721364975,
6.3875000000000002,-0.06000518798828125,
6.3899999999999997,-0.059957109391689301,
6.3925000000000001,-0.061784189194440842,
6.3949999999999996,-0.063394904136657715,
6.3975,-0.065173909068107605,
6.4000000000000004,-0.066904827952384949,
6.4024999999999999,-0.069429084658622742,
6.4050000000000002,-0.069909892976284027,
6.4074999999999998,-0.069861814379692078,
6.4100000000000001,-0.069260798394680023,
6.4124999999999996,-0.066856741905212402,
6.415,-0.065294109284877777,
6.4175000000000004,-0.063635312020778656,
6.4199999999999999,-0.061976514756679535,
6.4225000000000003,-0.058827202767133713,
6.4249999999999998,-0.057408809661865234,
6.4275000000000002,-0.056110620498657227,
6.4299999999999997,-0.054932635277509689,
6.4325000000000001,-0.053129594773054123,
6.4349999999999996,-0.052504539489746094,
6.4375,-0.052047770470380783,
6.4400000000000004,-0.051711201667785645,
6.4424999999999999,-0.051086150109767914,
6.4450000000000003,-0.05060533806681633,
6.4474999999999998,-0.049860082566738129,
6.4500000000000002,-0.048874419182538986,
6.4524999999999997,-0.047624312341213226,
6.4550000000000001,-0.044811569154262543,
6.4574999999999996,-0.043585501611232758,
6.46,-0.042720042169094086,
6.4625000000000004,-0.042599838227033615,
6.4649999999999999,-0.043441258370876312,
6.4675000000000002,-0.04478752613067627,
6.4699999999999998,-0.046470366418361664,
6.4725000000000001,-0.049812000244855881,
6.4749999999999996,-0.051038067787885666,
6.4775,-0.05168716236948967,
6.4800000000000004,-0.051735244691371918,
6.4824999999999999,-0.050196647644042969,
6.4850000000000003,-0.048922501504421234,
6.4874999999999998,-0.047600269317626953,
6.4900000000000002,-0.046494405716657639,
6.4924999999999997,-0.045508742332458496,
6.4950000000000001,-0.04582127183675766,
6.4974999999999996,-0.046614609658718109,
6.5,-0.047840677201747894,
6.5025000000000004,-0.050749581307172775,
6.5049999999999999,-0.052071809768676758,
6.5075000000000003,-0.053081512451171875,
6.5099999999999998,-0.053658485412597656,
6.5125000000000002,-0.053249798715114594,
6.5149999999999997,-0.052288174629211426,
6.5175000000000001,-0.050869785249233246,
6.5199999999999996,-0.049162905663251877,
6.5225,-0.045388542115688324,
6.5250000000000004,-0.043633580207824707,
6.5274999999999999,-0.042167108505964279,
6.5300000000000002,-0.041085284203290939,
6.5324999999999998,-0.040388107299804688,
6.5350000000000001,-0.040820837020874023,
6.5374999999999996,-0.041710339486598969,
6.54,-0.042984485626220703,
6.5425000000000004,-0.046013593673706055,
6.5449999999999999,-0.047480069100856781,
6.5475000000000003,-0.048730175942182541,
6.5499999999999998,-0.049619674682617188,
6.5525000000000002,-0.050100486725568771,
6.5549999999999997,-0.04969179630279541,
6.5575000000000001,-0.048946540802717209,
6.5599999999999996,-0.047936838120222092,
6.5625,-0.045773189514875412,
6.5650000000000004,-0.044859647750854492,
6.5674999999999999,-0.044210553169250488,
6.5700000000000003,-0.043873988091945648,
6.5724999999999998,-0.044090352952480316,
6.5750000000000002,-0.044523082673549652,
6.5774999999999997,-0.045027934014797211,
6.5800000000000001,-0.045484703034162521,
6.5824999999999996,-0.045797228813171387,
6.585,-0.045556824654340744,
6.5875000000000004,-0.045003890991210938,
6.5899999999999999,-0.044210553169250488,
6.5925000000000002,-0.042263269424438477,
6.5949999999999998,-0.041301649063825607,
6.5975000000000001,-0.040508311241865158,
6.5999999999999996,-0.039931338280439377,
6.6025,-0.039594769477844238,
6.6050000000000004,-0.039546690881252289,
6.6074999999999999,-0.039714973419904709,
6.6100000000000003,-0.039883255958557129,
6.6124999999999998,-0.039690934121608734,
6.6150000000000002,-0.039186082780361176,
6.6174999999999997,-0.038272541016340256,
6.6200000000000001,-0.036998391151428223,
6.6224999999999996,-0.033488474786281586,
6.625,-0.031493108719587326,
6.6275000000000004,-0.02952178381383419,
6.6299999999999999,-0.027814906090497971,
6.6325000000000003,-0.025915702804923058,
6.6349999999999998,-0.026011865586042404,
6.6375000000000002,-0.026877325028181076,
6.6399999999999997,-0.028464000672101974,
6.6425000000000001,-0.033007662743330002,
6.6449999999999996,-0.035363636910915375,
6.6475,-0.037262838333845139,
6.6500000000000004,-0.038344662636518478,
6.6524999999999999,-0.036830108612775803,
6.6550000000000002,-0.033897161483764648,
6.6574999999999998,-0.029545824974775314,
6.6600000000000001,-0.023968419060111046,
6.6624999999999996,-0.010553797706961632,
6.665,-0.0036060810089111328,
6.6675000000000004,0.0028367838822305202,
6.6699999999999999,0.0083420677110552788,
6.6725000000000003,0.015097459778189659,
6.6749999999999998,0.015938878059387207,
6.6775000000000002,0.015025338158011436,
6.6799999999999997,0.01245300006121397,
6.6825000000000001,0.0031973919831216335,
6.6849999999999996,-0.0029089055024087429,
6.6875,-0.0095200538635253906,
6.6900000000000004,-0.016323527321219444,
6.6924999999999999,-0.023006796836853027,
6.6950000000000003,-0.034978985786437988,
6.6974999999999998,-0.039979420602321625,
6.7000000000000002,-0.044210553169250488,
6.7024999999999997,-0.050629377365112305,
6.7050000000000001,-0.052985351532697678,
6.7074999999999996,-0.054956674575805664,
6.71,-0.056639514863491058,
6.7125000000000004,-0.059259932488203049,
6.7149999999999999,-0.060077309608459473,
6.7175000000000002,-0.060389839112758636,
6.7199999999999998,-0.060053270310163498,
6.7225000000000001,-0.056879919022321701,
6.7249999999999996,-0.05413929745554924,
6.7275,-0.050989985466003418,
6.7300000000000004,-0.047912798821926117,
6.7324999999999999,-0.04507601261138916,
6.7350000000000003,-0.047047339379787445,
6.7374999999999998,-0.052384339272975922,
6.7400000000000002,-0.061688028275966644,
6.7424999999999997,-0.092580124735832214,
6.7450000000000001,-0.11318286508321762,
6.7474999999999996,-0.13558864593505859,
6.75,-0.15789827704429626,
6.7525000000000004,-0.19237241148948669,
6.7549999999999999,-0.19900760054588318,
6.7575000000000003,-0.19477646052837372,
6.7599999999999998,-0.17720282077789307,
6.7625000000000002,-0.094960138201713562,
6.7649999999999997,-0.028944810852408409,
6.7675000000000001,0.052648782730102539,
6.7699999999999996,0.14753679931163788,
6.7725,0.36104083061218262,
6.7750000000000004,0.46888670325279236,
6.7774999999999999,0.56891942024230957,
6.7800000000000002,0.65452778339385986,
6.7824999999999998,0.75847905874252319,
6.7850000000000001,0.76809525489807129,
6.7874999999999996,0.74667513370513916,
6.79,0.695060133934021,
6.7925000000000004,0.5155494213104248,
6.7949999999999999,0.39977014064788818,
6.7975000000000003,0.27682682871818542,
6.7999999999999998,0.15482108294963837,
6.8025000000000002,-0.057288609445095062,
6.8049999999999997,-0.13655027747154236,
6.8075000000000001,-0.19405524432659149,
6.8099999999999996,-0.22953908145427704,
6.8125,-0.24302582442760468,
6.8150000000000004,-0.22862553596496582,
6.8174999999999999,-0.20621976256370544,
6.8200000000000003,-0.18025597929954529,
6.8224999999999998,-0.13188640773296356,
6.8250000000000002,-0.11388003826141357,
6.8274999999999997,-0.10111451148986816,
6.8300000000000001,-0.093181133270263672,
6.8324999999999996,-0.087531611323356628,
6.835,-0.087098881602287292,
6.8375000000000004,-0.086642108857631683,
6.8399999999999999,-0.085343919694423676,
6.8425000000000002,-0.078949138522148132,
6.8449999999999998,-0.074044868350028992,
6.8475000000000001,-0.068467460572719574,
6.8499999999999996,-0.062697730958461761,
6.8525,-0.051951609551906586,
6.8550000000000004,-0.047407947480678558,
6.8574999999999999,-0.043489336967468262,
6.8600000000000003,-0.040147703140974045,
6.8624999999999998,-0.034738581627607346,
6.8650000000000002,-0.032550893723964691,
6.8674999999999997,-0.030651688575744629,
6.8700000000000001,-0.029089054092764854,
6.8724999999999996,-0.026997527107596397,
6.875,-0.026420554146170616,
6.8775000000000004,-0.026059946045279503,
6.8799999999999999,-0.025771459564566612,
6.8825000000000003,-0.024689635261893272,
6.8849999999999998,-0.023631852120161057,
6.8875000000000002,-0.022093256935477257,
6.8899999999999997,-0.020097892731428146,
6.8925000000000001,-0.015145540237426758,
6.8949999999999996,-0.012501081451773643,
6.8975,-0.010024905204772949,
6.9000000000000004,-0.0077891349792480469,
6.9024999999999999,-0.004351337905973196,
6.9050000000000002,-0.0029810271225869656,
6.9074999999999998,-0.0016828378429636359,
6.9100000000000001,-0.00021636486053466797,
6.9124999999999996,0.0039186081849038601,
6.915,0.0068515539169311523,
6.9175000000000004,0.010361473076045513,
6.9199999999999999,0.014400283806025982,
6.9225000000000003,0.023343365639448166,
6.9249999999999998,0.027838945388793945,
6.9275000000000002,0.032094120979309082,
6.9299999999999997,0.035916566848754883,
6.9325000000000001,0.042119026184082031,
6.9349999999999996,0.044547121971845627,
6.9375,0.046734809875488281,
6.9400000000000004,0.048826336860656738,
6.9424999999999999,0.053730607032775879,
6.9450000000000003,0.056903958320617676,
6.9474999999999998,0.060798525810241699,
6.9500000000000002,0.065486431121826172,
6.9524999999999997,0.077170133590698242,
6.9550000000000001,0.084021687507629395,
6.9574999999999996,0.091330014169216156,
6.96,0.098902784287929535,
6.9625000000000004,0.11397620290517807,
6.9649999999999999,0.12104412168264389,
6.9675000000000002,0.1275591105222702,
6.9699999999999998,0.13337692618370056,
6.9725000000000001,0.14275273680686951,
6.9749999999999996,0.14628669619560242,
6.9775,0.14917156100273132,
6.9800000000000004,0.1515275239944458,
6.9824999999999999,0.15530189871788025,
6.9850000000000003,0.15703281760215759,
6.9874999999999998,0.15883585810661316,
6.9900000000000002,0.16080717742443085,
6.9924999999999997,0.16518256068229675,
6.9950000000000001,0.16737024486064911,
6.9974999999999996,0.16929349303245544,
7,0.17066380381584167,83.478263854980469
7.0025000000000004,0.1706397533416748,
7.0049999999999999,0.16866843402385712,
7.0075000000000003,0.16513447463512421,
7.0099999999999998,0.15986959636211395,
7.0125000000000002,0.14438748359680176,
7.0149999999999997,0.13443470001220703,
7.0175000000000001,0.12335201352834702,
7.0199999999999996,0.11145194619894028,
7.0225,0.086569987237453461,
7.0250000000000004,0.074213147163391113,
7.0274999999999999,0.062240958213806152,
7.0300000000000002,0.050797663629055023,
7.0324999999999998,0.029762189835309982,
7.0350000000000001,0.020145973190665245,
7.0374999999999996,0.011034607887268066,
7.04,0.002283851383253932,
7.0425000000000004,-0.014424324035644531,
7.0449999999999999,-0.022525986656546593,
7.0475000000000003,-0.030483406037092209,
7.0499999999999998,-0.038320623338222504,
7.0525000000000002,-0.05322575569152832,
7.0549999999999997,-0.060101352632045746,
7.0575000000000001,-0.066375933587551117,
7.0599999999999996,-0.071953341364860535,
7.0625,-0.08058389276266098,
7.0650000000000004,-0.083588957786560059,
7.0674999999999999,-0.085752606391906738,
7.0700000000000003,-0.087219081819057465,
7.0724999999999998,-0.088877879083156586,
7.0750000000000002,-0.089502930641174316,
7.0774999999999997,-0.090320311486721039,
7.0800000000000001,-0.091498300433158875,
7.0824999999999996,-0.09517650306224823,
7.085,-0.097652673721313477,
7.0875000000000004,-0.10034521669149399,
7.0899999999999999,-0.10308583825826645,
7.0925000000000002,-0.10777374356985092,
7.0949999999999998,-0.1092882975935936,
7.0975000000000001,-0.11005759239196777,
7.0999999999999996,-0.11008163541555405,
7.1025,-0.10815839469432831,
7.1050000000000004,-0.10654767602682114,
7.1074999999999999,-0.10481675714254379,
7.1100000000000003,-0.10318200290203094,
7.1124999999999998,-0.10101835429668427,
7.1150000000000002,-0.10072986781597137,
7.1174999999999997,-0.10101835429668427,
7.1200000000000001,-0.10181169211864471,
7.1224999999999996,-0.10440807044506073,
7.125,-0.10587453842163086,
7.1275000000000004,-0.10724484920501709,
7.1299999999999999,-0.10842283815145493,
7.1325000000000003,-0.10984122753143311,
7.1349999999999998,-0.11008163541555405,
7.1375000000000002,-0.11005759239196777,
7.1399999999999997,-0.10979314893484116,
7.1425000000000001,-0.10878344625234604,
7.1449999999999996,-0.10808627307415009,
7.1475,-0.10729293525218964,
7.1500000000000004,-0.10642747581005096,
7.1524999999999999,-0.1046244353055954,
7.1550000000000002,-0.10383109748363495,
7.1574999999999998,-0.10318200290203094,
7.1600000000000001,-0.10277330875396729,
7.1624999999999996,-0.10279735177755356,
7.165,-0.10323008149862289,
7.1675000000000004,-0.10380705446004868,
7.1699999999999999,-0.10435998439788818,
7.1725000000000003,-0.10469655692577362,
7.1749999999999998,-0.10407149791717529,
7.1775000000000002,-0.10274927318096161,
7.1799999999999997,-0.10068178176879883,
7.1825000000000001,-0.094623565673828125,
7.1849999999999996,-0.091017484664916992,
7.1875,-0.08736332505941391,
7.1900000000000004,-0.083949565887451172,
7.1924999999999999,-0.078949138522148132,
7.1950000000000003,-0.077699027955532074,
7.1974999999999998,-0.077338419854640961,
7.2000000000000002,-0.077891349792480469,
7.2024999999999997,-0.080944500863552094,
7.2050000000000001,-0.083060070872306824,
7.2074999999999996,-0.085223719477653503,
7.21,-0.087267160415649414,
7.2125000000000004,-0.090224146842956543,
7.2149999999999999,-0.09094536304473877,
7.2175000000000002,-0.091089606285095215,
7.2199999999999998,-0.090704962611198425,
7.2225000000000001,-0.088637471199035645,
7.2249999999999996,-0.087122917175292969,
7.2275,-0.085488162934780121,
7.2300000000000004,-0.083853408694267273,
7.2324999999999999,-0.081040665507316589,
7.2350000000000003,-0.080103084444999695,
7.2374999999999998,-0.079526111483573914,
7.2400000000000002,-0.079357825219631195,
7.2424999999999997,-0.080030962824821472,
7.2450000000000001,-0.080728136003017426,
7.2474999999999996,-0.081473395228385925,
7.25,-0.082194611430168152,
7.2525000000000004,-0.083132192492485046,
7.2549999999999999,-0.083228349685668945,
7.2575000000000003,-0.0830841064453125,
7.2599999999999998,-0.082723498344421387,
7.2625000000000002,-0.08171379566192627,
7.2649999999999997,-0.081160865724086761,
7.2675000000000001,-0.080680057406425476,
7.2699999999999996,-0.080271363258361816,
7.2725,-0.079694390296936035,
7.2750000000000004,-0.07950206845998764,
7.2774999999999999,-0.079381868243217468,
7.2800000000000002,-0.079309746623039246,
7.2824999999999998,-0.07950206845998764,
7.2850000000000001,-0.07983863353729248,
7.2874999999999996,-0.080415606498718262,
7.29,-0.081232987344264984,
7.2925000000000004,-0.083540879189968109,
7.2949999999999999,-0.084887146949768066,
7.2975000000000003,-0.086209379136562347,
7.2999999999999998,-0.08736332505941391,
7.3025000000000002,-0.088493227958679199,
7.3049999999999997,-0.088252827525138855,
7.3075000000000001,-0.087411403656005859,
7.3099999999999996,-0.086017057299613953,
7.3125,-0.08200228214263916,
7.3150000000000004,-0.079790554940700531,
7.3174999999999999,-0.077723070979118347,
7.3200000000000003,-0.076064273715019226,
7.3224999999999998,-0.074477598071098328,
7.3250000000000002,-0.074717998504638672,
7.3274999999999997,-0.075583457946777344,
7.3300000000000001,-0.076905690133571625,
7.3324999999999996,-0.080127120018005371,
7.335,-0.081473395228385925,
7.3375000000000004,-0.082338854670524597,
7.3399999999999999,-0.082555219531059265,
7.3425000000000002,-0.080728136003017426,
7.3449999999999998,-0.078732773661613464,
7.3475000000000001,-0.076184473931789398,
7.3499999999999996,-0.073275566101074219,
7.3525,-0.067217350006103516,
7.3550000000000004,-0.064524814486503601,
7.3574999999999999,-0.062265001237392426,
7.3600000000000003,-0.060606203973293304,
7.3624999999999998,-0.059356093406677246,
7.3650000000000002,-0.059788823127746582,
7.3674999999999997,-0.060822568833827972,
7.3700000000000001,-0.062409244477748871,
7.3724999999999996,-0.066472098231315613,
7.375,-0.068515539169311523,
7.3775000000000004,-0.070222422480583191,
7.3799999999999999,-0.071328282356262207,
7.3825000000000003,-0.070703230798244476,
7.3849999999999998,-0.068611703813076019,
7.3875000000000002,-0.065221987664699554,
7.3899999999999997,-0.060606203973293304,
7.3925000000000001,-0.048585932701826096,
7.3949999999999996,-0.041854582726955414,
7.3975,-0.035219393670558929,
7.4000000000000004,-0.029161175712943077,
7.4024999999999999,-0.020314257591962814,
7.4050000000000002,-0.018102526664733887,
7.4074999999999998,-0.017573636025190353,
7.4100000000000001,-0.018679499626159668,
7.4124999999999996,-0.025194486603140831,
7.415,-0.030026635155081749,
7.4175000000000004,-0.035531919449567795,
7.4199999999999999,-0.041325688362121582,
7.4225000000000003,-0.052793025970458984,
7.4249999999999998,-0.058033864945173264,
7.4275000000000002,-0.062793895602226257,
7.4299999999999997,-0.067000985145568848,
7.4325000000000001,-0.073972746729850769,
7.4349999999999996,-0.076857611536979675,
7.4375,-0.079478025436401367,
7.4400000000000004,-0.081930160522460938,
7.4424999999999999,-0.086353622376918793,
7.4450000000000003,-0.088228784501552582,
7.4474999999999998,-0.089719295501708984,
7.4500000000000002,-0.090584754943847656,
7.4524999999999997,-0.089671216905117035,
7.4550000000000001,-0.087627768516540527,
7.4574999999999996,-0.084550581872463226,
7.46,-0.076617203652858734,
7.4625000000000004,-0.072939001023769379,
7.4649999999999999,-0.070534944534301758,
7.4675000000000002,-0.070366665720939636,
7.4699999999999998,-0.073371730744838715,
7.4725000000000001,-0.091498300433158875,
7.4749999999999996,-0.10710060596466064,
7.4775,-0.12652537226676941,
7.4800000000000004,-0.17193794250488281,
7.4824999999999999,-0.19405524432659149,
7.4850000000000003,-0.21247029304504395,
7.4874999999999998,-0.22434632480144501,
7.4900000000000002,-0.21706204116344452,
7.4924999999999997,-0.19285321235656738,
7.4950000000000001,-0.15248915553092957,
7.4974999999999996,-0.09517650306224823,
7.5,0.067794322967529297,
7.5025000000000004,0.16898095607757568,
7.5049999999999999,0.27812501788139343,
7.5075000000000003,0.38979333639144897,
7.5099999999999998,0.59509956836700439,
7.5125000000000002,0.67529881000518799,
7.5149999999999997,0.73225080966949463,
7.5175000000000001,0.76121968030929565,
7.5199999999999996,0.72571182250976562,
7.5225,0.66219669580459595,
7.5250000000000004,0.57276588678359985,
7.5274999999999999,0.46342951059341431,
7.5300000000000002,0.21564364433288574,
7.5324999999999998,0.093541741371154785,
7.5350000000000001,-0.017405351623892784,
7.5374999999999996,-0.11140386760234833,
7.54,-0.23564538359642029,
7.5425000000000004,-0.26475846767425537,
7.5449999999999999,-0.27437469363212585,
7.5475000000000003,-0.26817223429679871,
7.5499999999999998,-0.22617340087890625,
7.5525000000000002,-0.1991758793592453,
7.5549999999999997,-0.1730678528547287,
7.5575000000000001,-0.15025338530540466,
7.5599999999999996,-0.11897663772106171,
7.5625,-0.11046628654003143,
7.5650000000000004,-0.10563413798809052,
7.5674999999999999,-0.10327816009521484,
7.5700000000000003,-0.10130684077739716,
7.5724999999999998,-0.099960565567016602,
7.5750000000000002,-0.097724795341491699,
7.5774999999999997,-0.094527408480644226,
7.5800000000000001,-0.085776649415493011,
7.5824999999999996,-0.080824300646781921,
7.585,-0.075871944427490234,
7.5875000000000004,-0.071160003542900085,
7.5899999999999999,-0.062793895602226257,
7.5925000000000002,-0.059187810868024826,
7.5949999999999998,-0.055942337960004807,
7.5975000000000001,-0.053009390830993652,
7.5999999999999996,-0.048081081360578537,
7.6025,-0.046109758317470551,
7.6050000000000004,-0.044499039649963379,
7.6074999999999999,-0.043321054428815842,
7.6100000000000003,-0.042551755905151367,
7.6124999999999998,-0.041974782943725586,
7.6150000000000002,-0.041926704347133636,
7.6174999999999997,-0.041782461106777191,
7.6200000000000001,-0.040580432862043381,
7.6224999999999996,-0.039186082780361176,
7.625,-0.037166677415370941,
7.6275000000000004,-0.034570299088954926,
7.6299999999999999,-0.027983188629150391,
7.6325000000000003,-0.024377107620239258,
7.6349999999999998,-0.020819108933210373,
7.6375000000000002,-0.017525553703308105,
7.6399999999999997,-0.012212594971060753,
7.6425000000000001,-0.010193189606070518,
7.6449999999999996,-0.0084863109514117241,
7.6475,-0.006923675537109375,
7.6500000000000004,-0.0032454729080200195,
7.6524999999999999,-0.00074525678064674139,
7.6550000000000002,0.0024280946236103773,
7.6574999999999998,0.0062986216507852077,
7.6600000000000001,0.015866756439208984,
7.6624999999999996,0.021203756332397461,
7.665,0.02661287784576416,
7.6675000000000004,0.031781595200300217,
7.6699999999999999,0.040772758424282074,
7.6725000000000003,0.044402878731489182,
7.6749999999999998,0.047480069100856781,
7.6775000000000002,0.050172608345746994,
7.6799999999999997,0.055557690560817719,
