Data Set 1:Time(s),Data Set 1:EKG(mV),Data Set 1:Heart Rate(bpm)
0,0.091714665293693542,85.020240783691406
0.0025000000000000001,-0.01538594625890255,
0.0050000000000000001,-0.10063370317220688,
0.0074999999999999997,-0.1621534526348114,
0.01,-0.20032982528209686,
0.012500000000000001,-0.21766304969787598,
0.014999999999999999,-0.18684308230876923,
0.017500000000000002,-0.16455750167369843,
0.02,-0.14280080795288086,
0.022499999999999999,-0.10945658385753632,
0.025000000000000001,-0.09938359260559082,
0.0275,-0.093253254890441895,
0.029999999999999999,-0.090055868029594421,
0.032500000000000001,-0.087651811540126801,
0.035000000000000003,-0.086425743997097015,
0.037499999999999999,-0.084334217011928558,
0.040000000000000001,-0.081160865724086761,
0.042500000000000003,-0.072265863418579102,
0.044999999999999998,-0.067217350006103516,
0.047500000000000001,-0.062240958213806152,
0.050000000000000003,-0.057649217545986176,
0.052499999999999998,-0.050316851586103439,
0.055,-0.047576230019330978,
0.057500000000000002,-0.045340459793806076,
0.059999999999999998,-0.043441258370876312,
0.0625,-0.04012366384267807,
0.065000000000000002,-0.038488905876874924,
0.067500000000000004,-0.036782026290893555,
0.070000000000000007,-0.035027068108320236,
0.072499999999999995,-0.031541191041469574,
0.074999999999999997,-0.029930472373962402,
0.077499999999999999,-0.028439959511160851,
0.080000000000000002,-0.027093689888715744,
0.082500000000000004,-0.024737715721130371,
0.085000000000000006,-0.023559730499982834,
0.087499999999999994,-0.022237500175833702,
0.089999999999999997,-0.020674865692853928,
0.092499999999999999,-0.016491811722517014,
0.095000000000000001,-0.013775229454040527,
0.097500000000000003,-0.010698040947318077,
0.10000000000000001,-0.0072842836380004883,
0.10249999999999999,-0.0037022433243691921,
0.105,0.0035339593887329102,
0.1075,0.006923675537109375,
0.11,0.010048946365714073,
0.1125,0.015506148338317871,
0.115,0.017934244126081467,
0.11749999999999999,0.020314257591962814,
0.12,0.022766392678022385,
0.1225,0.028415918350219727,
0.125,0.031805634498596191,
0.1275,0.035580001771450043,
0.13,0.039763055741786957,
0.13250000000000001,0.049042701721191406,
0.13500000000000001,0.053995054215192795,
0.13750000000000001,0.059067606925964355,
0.14000000000000001,0.06423632800579071,
0.14249999999999999,0.074958406388759613,
0.14499999999999999,0.080656014382839203,
0.14749999999999999,0.086666151881217957,
0.14999999999999999,0.093084976077079773,
0.1525,0.10734101384878159,
0.155,0.11510610580444336,
0.1575,0.12315969169139862,
0.16,0.13133347034454346,
0.16250000000000001,0.14729639887809753,
0.16500000000000001,0.1547008752822876,
0.16750000000000001,0.16148030757904053,
0.17000000000000001,0.16761064529418945,
0.17249999999999999,0.1777317225933075,
0.17499999999999999,0.18186669051647186,
0.17749999999999999,0.18549680709838867,
0.17999999999999999,0.18876633048057556,
0.1825,0.19448797404766083,
0.185,0.1970362663269043,
0.1875,0.19929608702659607,
0.19,0.20119528472423553,
0.1925,0.20335893332958221,
0.19500000000000001,0.20326277613639832,
0.19750000000000001,0.20213286578655243,
0.20000000000000001,0.19980093836784363,
0.20250000000000001,0.19102613627910614,
0.20499999999999999,0.18441498279571533,
0.20749999999999999,0.17636141180992126,
0.20999999999999999,0.16688942909240723,
0.21249999999999999,0.14433941245079041,
0.215,0.13164600729942322,
0.2175,0.11839966475963593,
0.22,0.10484080016613007,
0.2225,0.077891349792480469,
0.22500000000000001,0.065005622804164886,
0.22750000000000001,0.05276898667216301,
0.23000000000000001,0.041229527443647385,
0.23250000000000001,0.020506581291556358,
0.23499999999999999,0.011202892288565636,
0.23749999999999999,0.0025482974015176296,
0.23999999999999999,-0.0056254863739013672,
0.24249999999999999,-0.020722946152091026,
0.245,-0.027790864929556847,
0.2475,-0.034546256065368652,
0.25,-0.040989123284816742,
0.2525,-0.052624743431806564,
0.255,-0.057745378464460373,
0.25750000000000001,-0.062265001237392426,
0.26000000000000001,-0.066183611750602722,
0.26250000000000001,-0.072145663201808929,
0.26500000000000001,-0.074213147163391113,
0.26750000000000002,-0.075751744210720062,
0.27000000000000002,-0.076809525489807129,
0.27250000000000002,-0.077987514436244965,
0.27500000000000002,-0.078300043940544128,
0.27750000000000002,-0.078564487397670746,
0.28000000000000003,-0.07887701690196991,
0.28249999999999997,-0.079766511917114258,
0.28499999999999998,-0.080367527902126312,
0.28749999999999998,-0.081064701080322266,
0.28999999999999998,-0.081785917282104492,
0.29249999999999998,-0.083132192492485046,
0.29499999999999998,-0.083661079406738281,
0.29749999999999999,-0.084069773554801941,
0.29999999999999999,-0.084382295608520508,
0.30249999999999999,-0.084718868136405945,
0.30499999999999999,-0.084790989756584167,
0.3075,-0.084815025329589844,
0.31,-0.084790989756584167,
0.3125,-0.084406338632106781,
0.315,-0.083949565887451172,
0.3175,-0.083252392709255219,
0.32000000000000001,-0.082290768623352051,
0.32250000000000001,-0.079646311700344086,
0.32500000000000001,-0.078107714653015137,
0.32750000000000001,-0.076545082032680511,
0.33000000000000002,-0.075078606605529785,
0.33250000000000002,-0.072987079620361328,
0.33500000000000002,-0.07248222827911377,
0.33750000000000002,-0.072362028062343597,
0.34000000000000002,-0.072578392922878265,
0.34250000000000003,-0.073636174201965332,
0.34499999999999997,-0.074213147163391113,
0.34749999999999998,-0.074717998504638672,
0.34999999999999998,-0.075006484985351562,
0.35249999999999998,-0.074958406388759613,
0.35499999999999998,-0.074669919908046722,
0.35749999999999998,-0.074309311807155609,
0.35999999999999999,-0.073948703706264496,
0.36249999999999999,-0.073491930961608887,
0.36499999999999999,-0.073443852365016937,
0.36749999999999999,-0.07346789538860321,
0.37,-0.07351597398519516,
0.3725,-0.073323652148246765,
0.375,-0.072963044047355652,
0.3775,-0.072410106658935547,
0.38,-0.07168889045715332,
0.38250000000000001,-0.070006057620048523,
0.38500000000000001,-0.069212719798088074,
0.38750000000000001,-0.068611703813076019,
0.39000000000000001,-0.068251095712184906,
0.39250000000000002,-0.068371295928955078,
0.39500000000000002,-0.068779990077018738,
0.39750000000000002,-0.069332920014858246,
0.40000000000000002,-0.069909892976284027,
0.40250000000000002,-0.070799395442008972,
0.40500000000000003,-0.070967674255371094,
0.40749999999999997,-0.070871517062187195,
0.40999999999999998,-0.070558987557888031,
0.41249999999999998,-0.069380998611450195,
0.41499999999999998,-0.068659782409667969,
0.41749999999999998,-0.067962609231472015,
0.41999999999999998,-0.067313514649868011,
0.42249999999999999,-0.066327854990959167,
0.42499999999999999,-0.06599128246307373,
0.42749999999999999,-0.06570279598236084,
0.42999999999999999,-0.065438352525234222,
0.4325,-0.064885422587394714,
0.435,-0.064572893083095551,
0.4375,-0.064212284982204437,
0.44,-0.063851676881313324,
0.4425,-0.06325066089630127,
0.44500000000000001,-0.063034296035766602,
0.44750000000000001,-0.062938138842582703,
0.45000000000000001,-0.062914095818996429,
0.45250000000000001,-0.063058339059352875,
0.45500000000000002,-0.063178539276123047,
0.45750000000000002,-0.06325066089630127,
0.46000000000000002,-0.063226625323295593,
0.46250000000000002,-0.062769852578639984,
0.46500000000000002,-0.062240958213806152,
0.46750000000000003,-0.061495702713727951,
0.46999999999999997,-0.060558121651411057,
0.47249999999999998,-0.058154068887233734,
0.47499999999999998,-0.056783758103847504,
0.47749999999999998,-0.055461525917053223,
0.47999999999999998,-0.054211419075727463,
0.48249999999999998,-0.052432417869567871,
0.48499999999999999,-0.052023731172084808,
0.48749999999999999,-0.051951609551906586,
0.48999999999999999,-0.052240096032619476,
0.49249999999999999,-0.053538285195827484,
0.495,-0.05430757999420166,
0.4975,-0.054980717599391937,
0.5,-0.055413447320461273,
0.50249999999999995,-0.055317282676696777,
0.505,-0.054716270416975021,
0.50749999999999995,-0.053850810974836349,
0.51000000000000001,-0.052793025970458984,
0.51249999999999996,-0.05077362060546875,
0.51500000000000001,-0.050100486725568771,
0.51749999999999996,-0.049787960946559906,
0.52000000000000002,-0.049884121865034103,
0.52249999999999996,-0.051134228706359863,
0.52500000000000002,-0.052071809768676758,
0.52749999999999997,-0.053033433854579926,
0.53000000000000003,-0.053874850273132324,
0.53249999999999997,-0.054740309715270996,
0.53500000000000003,-0.054668188095092773,
0.53749999999999998,-0.054283540695905685,
0.54000000000000004,-0.053658485412597656,
0.54249999999999998,-0.052095852792263031,
0.54500000000000004,-0.051350593566894531,
0.54749999999999999,-0.050749581307172775,
0.55000000000000004,-0.050292812287807465,
0.55249999999999999,-0.049932204186916351,
0.55500000000000005,-0.049980282783508301,
0.5575,-0.050076447427272797,
0.56000000000000005,-0.050244729965925217,
0.5625,-0.050557255744934082,
0.56499999999999995,-0.050653420388698578,
0.5675,-0.050701498985290527,
0.56999999999999995,-0.050677459686994553,
0.57250000000000001,-0.050461094826459885,
0.57499999999999996,-0.050244729965925217,
0.57750000000000001,-0.049956243485212326,
0.57999999999999996,-0.049619674682617188,
0.58250000000000002,-0.048826336860656738,
0.58499999999999996,-0.048417650163173676,
0.58750000000000002,-0.048032999038696289,
0.58999999999999997,-0.047648351639509201,
0.59250000000000003,-0.046879053115844727,
0.59499999999999997,-0.046470366418361664,
0.59750000000000003,-0.045965515077114105,
0.59999999999999998,-0.045388542115688324,
0.60250000000000004,-0.043849945068359375,
0.60499999999999998,-0.042888324707746506,
0.60750000000000004,-0.041830539703369141,
0.60999999999999999,-0.040724676102399826,
0.61250000000000004,-0.038512945175170898,
0.61499999999999999,-0.037503242492675781,
0.61750000000000005,-0.036613743752241135,
0.62,-0.035868488252162933,
0.62250000000000005,-0.034810703247785568,
0.625,-0.03447413444519043,
0.62749999999999995,-0.034257769584655762,
0.63,-0.03413756936788559,
0.63249999999999995,-0.034089487046003342,
0.63500000000000001,-0.03413756936788559,
0.63749999999999996,-0.034185647964477539,
0.64000000000000001,-0.034209690988063812,
0.64249999999999996,-0.033945243805646896,
0.64500000000000002,-0.033488474786281586,
0.64749999999999996,-0.032647054642438889,
0.65000000000000002,-0.031348865479230881,
0.65249999999999997,-0.026949446648359299,
0.65500000000000003,-0.023752054199576378,
0.65749999999999997,-0.019857486709952354,
0.66000000000000003,-0.015361905097961426,
0.66249999999999998,-0.0052167973481118679,
0.66500000000000004,-2.4040540665737353e-05,
0.66749999999999998,0.0048561892472207546,
0.67000000000000004,0.0090632839128375053,
0.67249999999999999,0.014400283806025982,
0.67500000000000004,0.015001296997070312,
0.67749999999999999,0.014087757095694542,
0.68000000000000005,0.011635622009634972,
0.6825,0.0026204190216958523,
0.68500000000000005,-0.0034377973061054945,
0.6875,-0.010097026824951172,
0.68999999999999995,-0.016972621902823448,
0.6925,-0.030122797936201096,
0.69499999999999995,-0.035868488252162933,
0.69750000000000001,-0.040868919342756271,
0.69999999999999996,-0.045100055634975433,
0.70250000000000001,-0.051422715187072754,
0.70499999999999996,-0.053682528436183929,
0.70750000000000002,-0.055509608238935471,
0.70999999999999996,-0.056903958320617676,
0.71250000000000002,-0.058418512344360352,
0.71499999999999997,-0.058346390724182129,
0.71750000000000003,-0.05755305290222168,
0.71999999999999997,-0.055966377258300781,
0.72250000000000003,-0.050509177148342133,
0.72499999999999998,-0.047143500298261642,
0.72750000000000004,-0.044042270630598068,
0.72999999999999998,-0.041590135544538498,
0.73250000000000004,-0.044042270630598068,
0.73499999999999999,-0.050052404403686523,
0.73750000000000004,-0.060293674468994141,
0.73999999999999999,-0.075030528008937836,
0.74250000000000005,-0.11686106771230698,
0.745,-0.14207959175109863,
0.74750000000000005,-0.16794721782207489,
0.75,-0.19222816824913025,
0.75249999999999995,-0.22509157657623291,
0.755,-0.22776007652282715,
0.75749999999999995,-0.21737456321716309,
0.76000000000000001,-0.14763295650482178,
0.76249999999999996,-0.085031390190124512,
0.76500000000000001,-0.0034137568436563015,
0.76749999999999996,0.096114084124565125,
0.77000000000000002,0.33697625994682312,
0.77249999999999996,0.46859821677207947,
0.77500000000000002,0.5990181565284729,
0.77749999999999997,0.7206152081489563,
0.78000000000000003,0.90613603591918945,
0.78249999999999997,0.95635676383972168,
0.78500000000000003,0.97174268960952759,
0.78749999999999998,0.95034658908843994,
0.79000000000000004,0.80319446325302124,
0.79249999999999998,0.68724691867828369,
0.79500000000000004,0.553244948387146,
0.79749999999999999,0.41046819090843201,
0.80000000000000004,0.13597330451011658,
0.80249999999999999,0.020266175270080566,
0.80500000000000005,-0.073564052581787109,
0.8075,-0.1429450511932373,
0.81000000000000005,-0.21018645167350769,
0.8125,-0.21393677592277527,
0.81499999999999995,-0.2038397490978241,
0.8175,-0.18494388461112976,
0.81999999999999995,-0.13907453417778015,
0.82250000000000001,-0.11883239448070526,
0.82499999999999996,-0.10289351642131805,
0.82750000000000001,-0.091738700866699219,
0.82999999999999996,-0.081401273608207703,
0.83250000000000002,-0.079910755157470703,
0.83499999999999996,-0.079189538955688477,
0.83750000000000002,-0.078203879296779633,
0.83999999999999997,-0.073131322860717773,
0.84250000000000003,-0.06885211169719696,
0.84499999999999997,-0.063731476664543152,
0.84750000000000003,-0.058226190507411957,
0.84999999999999998,-0.047768555581569672,
0.85250000000000004,-0.043489336967468262,
0.85499999999999998,-0.040051542222499847,
0.85750000000000004,-0.037407081574201584,
0.85999999999999999,-0.033969283103942871,
0.86250000000000004,-0.032767258584499359,
0.86499999999999999,-0.031589269638061523,
0.86750000000000005,-0.03031512163579464,
0.87,-0.026997527107596397,
0.87250000000000005,-0.024881958961486816,
0.875,-0.022550027817487717,
0.87749999999999995,-0.020049810409545898,
0.88,-0.014977256767451763,
0.88249999999999995,-0.012597243301570415,
0.88500000000000001,-0.010409554466605186,
0.88749999999999996,-0.0084141893312335014,
0.89000000000000001,-0.0050725541077554226,
0.89249999999999996,-0.0036060810089111328,
0.89500000000000002,-0.0021396081428974867,
0.89749999999999996,-0.00060101354029029608,
0.90000000000000002,0.0031252703629434109,
0.90249999999999997,0.0054572029039263725,
0.90500000000000003,0.0081497430801391602,
0.90749999999999997,0.011178851127624512,
0.91000000000000003,0.018126567825675011,
0.91249999999999998,0.021852850914001465,
0.91500000000000004,0.025627216324210167,
0.91749999999999998,0.029353499412536621,
0.92000000000000004,0.036373339593410492,
0.92249999999999999,0.039618812501430511,
0.92500000000000004,0.042768120765686035,
0.92749999999999999,0.04582127183675766,
0.93000000000000005,0.05214393138885498,
0.9325,0.055581729859113693,
0.93500000000000005,0.059332054108381271,
0.9375,0.063467025756835938,
0.93999999999999995,0.072963044047355652,
0.9425,0.078300043940544128,
0.94499999999999995,0.083997651934623718,
0.94750000000000001,0.089983746409416199,
0.94999999999999996,0.10260502994060516,
0.95250000000000001,0.10916809737682343,
0.95499999999999996,0.11582732200622559,
0.95750000000000002,0.12258271872997284,
0.95999999999999996,0.1362377405166626,
0.96250000000000002,0.14311334490776062,
0.96499999999999997,0.15001296997070312,
0.96750000000000003,0.15691260993480682,
0.96999999999999997,0.17056763172149658,
0.97250000000000003,0.17727494239807129,
0.97499999999999998,0.18381397426128387,
0.97750000000000004,0.19018471240997314,
0.97999999999999998,0.20206074416637421,
0.98250000000000004,0.20739774405956268,
0.98499999999999999,0.21218180656433105,
0.98750000000000004,0.21629273891448975,
0.98999999999999999,0.22189418971538544,
0.99250000000000005,0.22309622168540955,
0.995,0.223048135638237,
0.99750000000000005,0.22170186042785645,
1,0.21506667137145996,83.623687744140625
1.0024999999999999,0.2098979651927948,
1.0049999999999999,0.20367145538330078,
1.0075000000000001,0.19653141498565674,
1.01,0.18032810091972351,
1.0125,0.17155329883098602,
1.0149999999999999,0.16239385306835175,
1.0175000000000001,0.15289783477783203,
1.02,0.13260762393474579,
1.0225,0.1215970516204834,
1.0249999999999999,0.10991334915161133,
1.0275000000000001,0.097508430480957031,
1.03,0.070751309394836426,
1.0325,0.05675971508026123,
1.0349999999999999,0.042695999145507812,
1.0375000000000001,0.028872689232230186,
1.04,0.0032695136032998562,
1.0425,-0.0080054998397827148,
1.0449999999999999,-0.018006365746259689,
1.0475000000000001,-0.026684999465942383,
1.05,-0.040315985679626465,
1.0525,-0.045580863952636719,
1.0549999999999999,-0.050004325807094574,
1.0575000000000001,-0.053826771676540375,
1.0600000000000001,-0.060245595872402191,
1.0625,-0.063034296035766602,
1.0649999999999999,-0.065582595765590668,
1.0674999999999999,-0.067938566207885742,
1.0700000000000001,-0.071929298341274261,
1.0725,-0.07351597398519516,
1.075,-0.07488628476858139,
1.0774999999999999,-0.07596810907125473,
1.0800000000000001,-0.077578827738761902,
1.0825,-0.07813175767660141,
1.085,-0.078612565994262695,
1.0874999999999999,-0.079021260142326355,
1.0900000000000001,-0.079718433320522308,
1.0925,-0.080030962824821472,
1.095,-0.080319449305534363,
1.0974999999999999,-0.080607935786247253,
1.1000000000000001,-0.080992579460144043,
1.1025,-0.081064701080322266,
1.105,-0.080992579460144043,
1.1074999999999999,-0.080776214599609375,
1.1100000000000001,-0.07983863353729248,
1.1125,-0.079117417335510254,
1.115,-0.078300043940544128,
1.1174999999999999,-0.077434584498405457,
1.1200000000000001,-0.075823865830898285,
1.1225000000000001,-0.07522284984588623,
1.125,-0.074790120124816895,
1.1274999999999999,-0.074525676667690277,
1.1299999999999999,-0.074357390403747559,
1.1325000000000001,-0.074333354830741882,
1.135,-0.074213147163391113,
1.1375,-0.073948703706264496,
1.1399999999999999,-0.072914958000183105,
1.1425000000000001,-0.072169706225395203,
1.145,-0.07135232537984848,
1.1475,-0.070558987557888031,
1.1499999999999999,-0.069332920014858246,
1.1525000000000001,-0.068996354937553406,
1.155,-0.06885211169719696,
1.1575,-0.068876147270202637,
1.1599999999999999,-0.068996354937553406,
1.1625000000000001,-0.069092512130737305,
1.165,-0.068948268890380859,
1.1675,-0.068635746836662292,
1.1699999999999999,-0.067529879510402679,
1.1725000000000001,-0.066856741905212402,
1.175,-0.066255733370780945,
1.1775,-0.065774917602539062,
1.1799999999999999,-0.065462395548820496,
1.1825000000000001,-0.065678760409355164,
1.1850000000000001,-0.066063404083251953,
1.1875,-0.066592298448085785,
1.1899999999999999,-0.067650079727172852,
1.1924999999999999,-0.068010687828063965,
1.1950000000000001,-0.068203017115592957,
1.1975,-0.06815493106842041,
1.2,-0.067914530634880066,
1.2024999999999999,-0.066880784928798676,
1.2050000000000001,-0.066207647323608398,
1.2075,-0.065486431121826172,
1.21,-0.064188241958618164,
1.2124999999999999,-0.063683390617370605,
1.2150000000000001,-0.063274703919887543,
1.2175,-0.062962174415588379,
1.22,-0.062721773982048035,
1.2224999999999999,-0.062385201454162598,
1.2250000000000001,-0.062144797295331955,
1.2275,-0.061808228492736816,
1.23,-0.060702364891767502,
1.2324999999999999,-0.059909027069807053,
1.2350000000000001,-0.058947406709194183,
1.2375,-0.057913661003112793,
1.24,-0.055750012397766113,
1.2424999999999999,-0.054764352738857269,
1.2450000000000001,-0.053922932595014572,
1.2475000000000001,-0.05322575569152832,
1.25,-0.052312217652797699,
1.2524999999999999,-0.05197564885020256,
1.2549999999999999,-0.051663123071193695,
1.2575000000000001,-0.051254432648420334,
1.26,-0.050701498985290527,
1.2625,-0.049018662422895432,
1.2649999999999999,-0.047864716500043869,
1.2675000000000001,-0.046542488038539886,
1.27,-0.043777823448181152,
1.2725,-0.042527716606855392,
1.2749999999999999,-0.041445892304182053,
1.2775000000000001,-0.040652554482221603,
1.28,-0.039955377578735352,
1.2825,-0.040027499198913574,
1.2849999999999999,-0.040315985679626465,
1.2875000000000001,-0.040724676102399826,
1.29,-0.041518013924360275,
1.2925,-0.041734378784894943,
1.2949999999999999,-0.041758418083190918,
1.2975000000000001,-0.04154205322265625,
1.3,-0.040532350540161133,
1.3025,-0.039835177361965179,
1.3049999999999999,-0.039113961160182953,
1.3075000000000001,-0.038416784256696701,
1.3100000000000001,-0.037238799035549164,
1.3125,-0.036782026290893555,
1.3149999999999999,-0.036373339593410492,
1.3174999999999999,-0.035940609872341156,
1.3200000000000001,-0.034834742546081543,
1.3225,-0.034065447747707367,
1.325,-0.033151905983686447,
1.3274999999999999,-0.032118164002895355,
1.3300000000000001,-0.030050676316022873,
1.3325,-0.029209256172180176,
1.335,-0.028656324371695518,
1.3374999999999999,-0.028439959511160851,
1.3400000000000001,-0.029137134552001953,
1.3425,-0.029930472373962402,
1.345,-0.030892094597220421,
1.3474999999999999,-0.031901799142360687,
1.3500000000000001,-0.033368270844221115,
1.3525,-0.033656757324934006,
1.355,-0.033536553382873535,
1.3574999999999999,-0.033079784363508224,
1.3600000000000001,-0.031372904777526855,
1.3625,-0.030339162796735764,
1.365,-0.029401581734418869,
1.3674999999999999,-0.028632283210754395,
1.3700000000000001,-0.027911067008972168,
1.3725000000000001,-0.028007229790091515,
1.375,-0.028319757431745529,
1.3774999999999999,-0.028824608772993088,
1.3799999999999999,-0.029834311455488205,
1.3825000000000001,-0.030170878395438194,
1.385,-0.030243000015616417,
1.3875,-0.030050676316022873,
1.3899999999999999,-0.028824608772993088,
1.3925000000000001,-0.027887027710676193,
1.395,-0.026901364326477051,
1.3975,-0.025891661643981934,
1.3999999999999999,-0.024184783920645714,
1.4025000000000001,-0.02353568933904171,
1.405,-0.023006796836853027,
1.4075,-0.022501945495605469,
1.4099999999999999,-0.021251838654279709,
1.4125000000000001,-0.020338296890258789,
1.415,-0.019160311669111252,
1.4175,-0.017765959724783897,
1.4199999999999999,-0.014544527046382427,
1.4225000000000001,-0.013005932793021202,
1.425,-0.01168370246887207,
1.4275,-0.0107701625674963,
1.4299999999999999,-0.01028935145586729,
1.4325000000000001,-0.0107701625674963,
1.4350000000000001,-0.011611580848693848,
1.4375,-0.012669364921748638,
1.4399999999999999,-0.014712810516357422,
1.4424999999999999,-0.015361905097961426,
1.4450000000000001,-0.015554229728877544,
1.4475,-0.01521766185760498,
1.45,-0.012741486541926861,
1.4524999999999999,-0.010553797706961632,
1.4550000000000001,-0.0077891349792480469,
1.4575,-0.0044475002214312553,
1.46,0.0037743649445474148,
1.4624999999999999,0.0084863109514117241,
1.4650000000000001,0.013462702743709087,
1.4675,0.018559297546744347,
1.47,0.028103392571210861,
1.4724999999999999,0.032046042382717133,
1.4750000000000001,0.035099189728498459,
1.4775,0.036950312554836273,
1.48,0.036541622132062912,
1.4824999999999999,0.034161608666181564,
1.4850000000000001,0.030435323715209961,
1.4875,0.025579135864973068,
1.49,0.013679067604243755,
1.4924999999999999,0.0072602434083819389,
1.4950000000000001,0.00098566222004592419,
1.4975000000000001,-0.0049523515626788139,
1.5,-0.015097459778189659,
1.5024999999999999,-0.019232433289289474,
1.5049999999999999,-0.022814473137259483,
1.5075000000000001,-0.025915702804923058,
1.51,-0.030964216217398643,
1.5125,-0.032911501824855804,
1.5149999999999999,-0.03442605584859848,
1.5175000000000001,-0.035267472267150879,
1.52,-0.034329891204833984,
1.5225,-0.032262407243251801,
1.5249999999999999,-0.02906501293182373,
1.5275000000000001,-0.025026202201843262,
1.53,-0.016275446861982346,
1.5325,-0.013102094642817974,
1.5349999999999999,-0.011948148719966412,
1.5375000000000001,-0.013823310844600201,
1.54,-0.029738148674368858,
1.5425,-0.044547121971845627,
1.5449999999999999,-0.063731476664543152,
1.5475000000000001,-0.086497865617275238,
1.55,-0.13691088557243347,
1.5525,-0.16037444770336151,
1.5549999999999999,-0.17929434776306152,
1.5575000000000001,-0.19073764979839325,
1.5600000000000001,-0.17967900633811951,
1.5625,-0.15184006094932556,
1.5649999999999999,-0.1063072681427002,
1.5674999999999999,-0.041998825967311859,
1.5700000000000001,0.14198343455791473,
1.5725,0.2576424777507782,
1.575,0.38385531306266785,
1.5774999999999999,0.51482820510864258,
1.5800000000000001,0.76222938299179077,
1.5825,0.86293518543243408,
1.585,0.93823015689849854,
1.5874999999999999,0.98205608129501343,
1.5900000000000001,0.96164566278457642,
1.5925,0.89724105596542358,
1.595,0.80131930112838745,
1.5974999999999999,0.68056368827819824,
1.6000000000000001,0.39948165416717529,
1.6025,0.25819540023803711,
1.605,0.12820820510387421,
1.6074999999999999,0.016419690102338791,
1.6100000000000001,-0.13657431304454803,
1.6125,-0.17612099647521973,
1.615,-0.1936706006526947,
1.6174999999999999,-0.19335806369781494,
1.6200000000000001,-0.15914838016033173,
1.6225000000000001,-0.13510784506797791,
1.625,-0.11178851127624512,
1.6274999999999999,-0.091834865510463715,
1.6299999999999999,-0.066351890563964844,
1.6325000000000001,-0.060510039329528809,
1.635,-0.057865582406520844,
1.6375,-0.057096283882856369,
1.6399999999999999,-0.056110620498657227,
1.6425000000000001,-0.054259501397609711,
1.645,-0.050989985466003418,
1.6475,-0.046422284096479416,
1.6499999999999999,-0.034954946488142014,
1.6525000000000001,-0.029040973633527756,
1.655,-0.023583769798278809,
1.6575,-0.018871825188398361,
1.6599999999999999,-0.012068351730704308,
1.6625000000000001,-0.0098325815051794052,
1.665,-0.0081257028505206108,
1.6675,-0.0067794322967529297,
1.6699999999999999,-0.004351337905973196,
1.6725000000000001,-0.0030531487427651882,
1.675,-0.0016347568016499281,
1.6775,-7.2121620178222656e-05,
1.6799999999999999,0.0032214324455708265,
1.6825000000000001,0.0049042701721191406,
1.6850000000000001,0.0065390272065997124,
1.6875,0.0081257028505206108,
1.6899999999999999,0.011202892288565636,
1.6924999999999999,0.012741486541926861,
1.6950000000000001,0.01430412195622921,
1.6975,0.015890797600150108,
1.7,0.019232433289289474,
1.7024999999999999,0.020987391471862793,
1.7050000000000001,0.022814473137259483,
1.7075,0.024713676422834396,
1.71,0.028872689232230186,
1.7124999999999999,0.031180581077933311,
1.7150000000000001,0.033704839646816254,
1.7175,0.036445461213588715,
1.72,0.042647920548915863,
1.7224999999999999,0.046085715293884277,
1.7250000000000001,0.049739878624677658,
1.7275,0.053562324494123459,
1.73,0.061615906655788422,
1.7324999999999999,0.065823003649711609,
1.7350000000000001,0.070126257836818695,
1.7375,0.074573755264282227,
1.74,0.083901487290859222,
1.7424999999999999,0.088877879083156586,
1.7450000000000001,0.09409467875957489,
1.7475000000000001,0.099575921893119812,
1.75,0.11137982457876205,
1.7524999999999999,0.1176784485578537,
1.7549999999999999,0.12424151599407196,
1.7575000000000001,0.13097286224365234,
1.76,0.14486829936504364,
1.7625,0.15191218256950378,
1.7649999999999999,0.15893201529979706,
1.7675000000000001,0.16590377688407898,
1.77,0.17948667705059052,
1.7725,0.18607378005981445,
1.7749999999999999,0.19246856868267059,
1.7775000000000001,0.19867102801799774,
1.78,0.21033069491386414,
1.7825,0.21573981642723083,
1.7849999999999999,0.22076427936553955,
1.7875000000000001,0.22533199191093445,
1.79,0.23273646831512451,
1.7925,0.23538093268871307,
1.7949999999999999,0.23720800876617432,
1.7975000000000001,0.23814558982849121,
1.8,0.23711185157299042,
1.8025,0.23509244620800018,
1.8049999999999999,0.23206333816051483,
1.8075000000000001,0.22800049185752869,
1.8100000000000001,0.21684567630290985,
1.8125,0.20972967147827148,
1.8149999999999999,0.20155589282512665,
1.8174999999999999,0.19234836101531982,
1.8200000000000001,0.17090420424938202,
1.8225,0.15883585810661316,
1.825,0.1460222452878952,
1.8274999999999999,0.13263165950775146,
1.8300000000000001,0.10500907897949219,
1.8325,0.091257892549037933,
1.835,0.077819228172302246,
1.8374999999999999,0.064909458160400391,
1.8400000000000001,0.041229527443647385,
1.8425,0.030627649277448654,
1.845,0.02091526985168457,
1.8474999999999999,0.012020270340144634,
1.8500000000000001,-0.0034137568436563015,
1.8525,-0.010121067985892296,
1.855,-0.016275446861982346,
1.8574999999999999,-0.021900933235883713,
1.8600000000000001,-0.031853716820478439,
1.8625,-0.036181014031171799,
1.865,-0.04012366384267807,
1.8674999999999999,-0.04365762323141098,
1.8700000000000001,-0.049547553062438965,
1.8725000000000001,-0.051927566528320312,
1.875,-0.05397101491689682,
1.8774999999999999,-0.055677890777587891,
1.8799999999999999,-0.058370433747768402,
1.8825000000000001,-0.059428215026855469,
1.885,-0.060317717492580414,
1.8875,-0.061062972992658615,
1.8899999999999999,-0.062024593353271484,
1.8925000000000001,-0.062192879617214203,
1.895,-0.06212075799703598,
1.8975,-0.061760149896144867,
1.8999999999999999,-0.060173474252223969,
1.9025000000000001,-0.059043567627668381,
1.905,-0.057793460786342621,
1.9075,-0.056519310921430588,
1.9099999999999999,-0.054427783936262131,
1.9125000000000001,-0.053802728652954102,
1.915,-0.053562324494123459,
1.9175,-0.053706567734479904,
1.9199999999999999,-0.054980717599391937,
1.9225000000000001,-0.055942337960004807,
1.925,-0.056928001344203949,
1.9275,-0.057865582406520844,
1.9299999999999999,-0.059139728546142578,
1.9325000000000001,-0.059428215026855469,
1.9350000000000001,-0.059476297348737717,
1.9375,-0.059308014810085297,
1.9399999999999999,-0.05863487720489502,
1.9424999999999999,-0.058226190507411957,
1.9450000000000001,-0.057793460786342621,
1.9475,-0.05738477036356926,
1.95,-0.056567393243312836,
1.9524999999999999,-0.0561346635222435,
1.9550000000000001,-0.055653851479291916,
1.9575,-0.055124960839748383,
1.96,-0.053995054215192795,
1.9624999999999999,-0.053394041955471039,
1.9650000000000001,-0.052841108292341232,
1.9675,-0.052336256951093674,
1.97,-0.051446758210659027,
1.9724999999999999,-0.051086150109767914,
1.9750000000000001,-0.050797663629055023,
1.9775,-0.050557255744934082,
1.98,-0.050244729965925217,
1.9824999999999999,-0.050220690667629242,
1.9850000000000001,-0.050244729965925217,
1.9875,-0.050388973206281662,
1.99,-0.050821702927350998,
1.9924999999999999,-0.051038067787885666,
1.9950000000000001,-0.051182311028242111,
1.9975000000000001,-0.051182311028242111,
2,-0.050509177148342133,79.545455932617188
2.0024999999999999,-0.049763917922973633,
2.0049999999999999,-0.048730175942182541,
2.0074999999999998,-0.047456026077270508,
2.0099999999999998,-0.044547121971845627,
2.0125000000000002,-0.043152771890163422,
2.0150000000000001,-0.041974782943725586,
2.0175000000000001,-0.041109323501586914,
2.02,-0.040556393563747406,
2.0225,-0.040868919342756271,
2.0249999999999999,-0.041493974626064301,
2.0274999999999999,-0.042311351746320724,
2.0299999999999998,-0.043922066688537598,
2.0325000000000002,-0.044450961053371429,
2.0350000000000001,-0.044667325913906097,
2.0375000000000001,-0.044499039649963379,
2.04,-0.043128728866577148,
2.0425,-0.042119026184082031,
2.0449999999999999,-0.041013162583112717,
2.0474999999999999,-0.040003459900617599,
2.0499999999999998,-0.038657188415527344,
2.0525000000000002,-0.038464866578578949,
2.0550000000000002,-0.038633149117231369,
2.0575000000000001,-0.03908991813659668,
2.0600000000000001,-0.040580432862043381,
2.0625,-0.041325688362121582,
2.0649999999999999,-0.041950743645429611,
2.0674999999999999,-0.04228731244802475,
2.0699999999999998,-0.041974782943725586,
2.0724999999999998,-0.041253566741943359,
2.0750000000000002,-0.040195785462856293,
2.0775000000000001,-0.038873553276062012,
2.0800000000000001,-0.035772323608398438,
2.0825,-0.034209690988063812,
2.085,-0.032743215560913086,
2.0874999999999999,-0.031493108719587326,
2.0899999999999999,-0.029930472373962402,
2.0924999999999998,-0.029666027054190636,
2.0950000000000002,-0.029786229133605957,
2.0975000000000001,-0.030267041176557541,
2.1000000000000001,-0.03197392076253891,
2.1025,-0.033031702041625977,
2.105,-0.034089487046003342,
2.1074999999999999,-0.035003028810024261,
2.1099999999999999,-0.036060810089111328,
2.1124999999999998,-0.036108892410993576,
2.1150000000000002,-0.035820405930280685,
2.1175000000000002,-0.035267472267150879,
2.1200000000000001,-0.033656757324934006,
2.1225000000000001,-0.032815337181091309,
2.125,-0.032118164002895355,
2.1274999999999999,-0.031613312661647797,
2.1299999999999999,-0.031276743859052658,
2.1324999999999998,-0.031469069421291351,
2.1349999999999998,-0.031781595200300217,
2.1375000000000002,-0.032190285623073578,
2.1400000000000001,-0.032839380204677582,
2.1425000000000001,-0.032959580421447754,
2.145,-0.032839380204677582,
2.1475,-0.032454729080200195,
2.1499999999999999,-0.030964216217398643,
2.1524999999999999,-0.029882391914725304,
2.1549999999999998,-0.028632283210754395,
2.1575000000000002,-0.027237933129072189,
2.1600000000000001,-0.024256905540823936,
2.1625000000000001,-0.022718310356140137,
2.165,-0.021203756332397461,
2.1675,-0.019785365089774132,
2.1699999999999999,-0.017333230003714561,
2.1724999999999999,-0.016395648941397667,
2.1749999999999998,-0.015770595520734787,
2.1775000000000002,-0.015458067879080772,
2.1800000000000002,-0.015914838761091232,
2.1825000000000001,-0.016612013801932335,
2.1850000000000001,-0.017525553703308105,
2.1875,-0.018511217087507248,
2.1899999999999999,-0.01983344554901123,
2.1924999999999999,-0.019737284630537033,
2.1949999999999998,-0.018847784027457237,
2.1974999999999998,-0.017044743523001671,
2.2000000000000002,-0.01031339168548584,
2.2025000000000001,-0.0055533647537231445,
2.2050000000000001,-9.6162162662949413e-05,
2.2075,0.0057456893846392632,
2.21,0.016948580741882324,
2.2124999999999999,0.021564364433288574,
2.2149999999999999,0.025002162903547287,
2.2174999999999998,0.027045607566833496,
2.2200000000000002,0.026396512985229492,
2.2225000000000001,0.023800134658813477,
2.2250000000000001,0.019905567169189453,
2.2275,0.014977256767451763,
2.23,0.0033175945281982422,
2.2324999999999999,-0.0028127431869506836,
2.2349999999999999,-0.0087747974321246147,
2.2374999999999998,-0.014376243576407433,
2.2400000000000002,-0.024112662300467491,
2.2425000000000002,-0.028199553489685059,
2.2450000000000001,-0.031829677522182465,
2.2475000000000001,-0.035051107406616211,
2.25,-0.040604472160339355,
2.2524999999999999,-0.042960446327924728,
2.2549999999999999,-0.045003890991210938,
2.2574999999999998,-0.046614609658718109,
2.2599999999999998,-0.047888755798339844,
2.2625000000000002,-0.047167539596557617,
2.2650000000000001,-0.045412581413984299,
2.2675000000000001,-0.038969717919826508,
2.27,-0.034882824867963791,
2.2725,-0.030964216217398643,
2.2749999999999999,-0.028007229790091515,
2.2774999999999999,-0.026925405487418175,
2.2799999999999998,-0.034065447747707367,
2.2825000000000002,-0.043777823448181152,
2.2850000000000001,-0.058105986565351486,
2.2875000000000001,-0.076857611536979675,
2.29,-0.12419342994689941,
2.2925,-0.14970044791698456,
2.2949999999999999,-0.17350058257579803,
2.2974999999999999,-0.20499369502067566,
2.2999999999999998,-0.20677268505096436,
2.3025000000000002,-0.19537746906280518,
2.3050000000000002,-0.168307825922966,
2.3075000000000001,-0.1237366646528244,
2.3100000000000001,0.020771026611328125,
2.3125,0.11912088096141815,
2.3149999999999999,0.23139020800590515,
2.3174999999999999,0.47876736521720886,
2.3199999999999998,0.60118180513381958,
2.3224999999999998,0.71289819478988647,
2.3250000000000002,0.80634379386901855,
2.3275000000000001,0.91214621067047119,
2.3300000000000001,0.91531956195831299,
2.3325,0.8830571174621582,
2.335,0.81696969270706177,
2.3374999999999999,0.60281658172607422,
2.3399999999999999,0.46970409154891968,
2.3424999999999998,0.33120653033256531,
2.3450000000000002,0.19641122221946716,
2.3475000000000001,-0.03094017505645752,
2.3500000000000001,-0.11282225698232651,
2.3525,-0.17035126686096191,
2.355,-0.20420035719871521,
2.3574999999999999,-0.21311938762664795,
2.3599999999999999,-0.19737283885478973,
2.3624999999999998,-0.17489492893218994,
2.3650000000000002,-0.15025338530540466,
2.3675000000000002,-0.10777374356985092,
2.3700000000000001,-0.093565784394741058,
2.3725000000000001,-0.08445441722869873,
2.375,-0.079670354723930359,
2.3774999999999999,-0.077723070979118347,
2.3799999999999999,-0.077723070979118347,
2.3824999999999998,-0.076905690133571625,
2.3849999999999998,-0.074669919908046722,
2.3875000000000002,-0.06570279598236084,
2.3900000000000001,-0.05966862291097641,
2.3925000000000001,-0.053297877311706543,
2.395,-0.047215621918439865,
2.3975,-0.037479203194379807,
2.3999999999999999,-0.034161608666181564,
2.4024999999999999,-0.031829677522182465,
2.4049999999999998,-0.030291080474853516,
2.4075000000000002,-0.028464000672101974,
2.4100000000000001,-0.027598541229963303,
2.4125000000000001,-0.026540756225585938,
2.415,-0.025122364982962608,
2.4175,-0.023367404937744141,
2.4199999999999999,-0.01891990564763546,
2.4224999999999999,-0.016395648941397667,
2.4249999999999998,-0.013799270614981651,
2.4275000000000002,-0.0086305541917681694,
2.4300000000000002,-0.0061303377151489258,
2.4325000000000001,-0.0037262837868183851,
2.4350000000000001,-0.0013943513622507453,
2.4375,0.0032214324455708265,
2.4399999999999999,0.0055533647537231445,
2.4424999999999999,0.0079093379899859428,
2.4449999999999998,0.010337432846426964,
2.4474999999999998,0.015265743248164654,
2.4500000000000002,0.017717879265546799,
2.4525000000000001,0.020121932029724121,
2.4550000000000001,0.02245386503636837,
2.4575,0.026925405487418175,
2.46,0.029113095253705978,
2.4624999999999999,0.031372904777526855,
2.4649999999999999,0.033776961266994476,
2.4674999999999998,0.039474569261074066,
2.4700000000000002,0.04291236400604248,
2.4725000000000001,0.046806931495666504,
2.4750000000000001,0.051158271729946136,
2.4775,0.060894690454006195,
2.48,0.0661114901304245,
2.4824999999999999,0.071376368403434753,
2.4849999999999999,0.076641246676445007,
2.4874999999999998,0.087002716958522797,
2.4900000000000002,0.092147395014762878,
2.4925000000000002,0.097364187240600586,
2.4950000000000001,0.10274927318096161,
2.4975000000000001,0.11445701122283936,
2.5,0.12087583541870117,
2.5024999999999999,0.12772738933563232,
2.5049999999999999,0.13489148020744324,
2.5074999999999998,0.14986872673034668,
2.5099999999999998,0.15739342570304871,
2.5125000000000002,0.16472578048706055,
2.5150000000000001,0.17179369926452637,
2.5175000000000001,0.18484771251678467,
2.52,0.1907857358455658,
2.5225,0.19633910059928894,
2.5249999999999999,0.20153185725212097,
2.5274999999999999,0.21090766787528992,
2.5299999999999998,0.21501860022544861,
2.5325000000000002,0.21862468123435974,
2.5350000000000001,0.22158166766166687,
2.5375000000000001,0.22494733333587646,
2.54,0.22501945495605469,
2.5425,0.2237933874130249,
2.5449999999999999,0.22119700908660889,
2.5474999999999999,0.21172504127025604,
2.5499999999999998,0.20492157340049744,
2.5525000000000002,0.19681990146636963,
2.5550000000000002,0.18758833408355713,
2.5575000000000001,0.16626438498497009,
2.5600000000000001,0.1545085608959198,
2.5625,0.14217576384544373,
2.5649999999999999,0.12945830821990967,
2.5674999999999999,0.10325412452220917,
2.5699999999999998,0.090031825006008148,
2.5724999999999998,0.076905690133571625,
2.5750000000000002,0.063971877098083496,
2.5775000000000001,0.039234161376953125,
2.5800000000000001,0.027670662850141525,
2.5825,0.01675625704228878,
2.585,0.0065630674362182617,
2.5874999999999999,-0.011635622009634972,
2.5899999999999999,-0.019689202308654785,
2.5924999999999998,-0.027165811508893967,
2.5950000000000002,-0.034113526344299316,
2.5975000000000001,-0.046782892197370529,
2.6000000000000001,-0.05260070413351059,
2.6025,-0.058105986565351486,
2.605,-0.06325066089630127,
2.6074999999999999,-0.072121620178222656,
2.6099999999999999,-0.075703665614128113,
2.6124999999999998,-0.078636609017848969,
2.6150000000000002,-0.080872379243373871,
2.6175000000000002,-0.083348557353019714,
2.6200000000000001,-0.08378128707408905,
2.6225000000000001,-0.083829365670681,
2.625,-0.083637043833732605,
2.6274999999999999,-0.083132192492485046,
2.6299999999999999,-0.083036027848720551,
2.6324999999999998,-0.083132192492485046,
2.6349999999999998,-0.083420678973197937,
2.6375000000000002,-0.08445441722869873,
2.6400000000000001,-0.085079476237297058,
2.6425000000000001,-0.085632406175136566,
2.645,-0.086065135896205902,
2.6475,-0.086305543780326843,
2.6499999999999999,-0.086065135896205902,
2.6524999999999999,-0.085608363151550293,
2.6549999999999998,-0.084959268569946289,
2.6575000000000002,-0.083444714546203613,
2.6600000000000001,-0.08274754136800766,
2.6625000000000001,-0.082218647003173828,
2.665,-0.081930160522460938,
2.6675,-0.082170568406581879,
2.6699999999999999,-0.082723498344421387,
2.6724999999999999,-0.083468757569789886,
2.6749999999999998,-0.084334217011928558,
2.6775000000000002,-0.085896849632263184,
2.6800000000000002,-0.086377665400505066,
2.6825000000000001,-0.086569987237453461,
2.6850000000000001,-0.086425743997097015,
2.6875,-0.085271798074245453,
2.6899999999999999,-0.084478460252285004,
2.6924999999999999,-0.083709165453910828,
2.6949999999999998,-0.083132192492485046,
2.6974999999999998,-0.082963906228542328,
2.7000000000000002,-0.083468757569789886,
2.7025000000000001,-0.084334217011928558,
2.7050000000000001,-0.085464119911193848,
2.7075,-0.087916254997253418,
2.71,-0.088925957679748535,
2.7124999999999999,-0.089599095284938812,
2.7149999999999999,-0.089839503169059753,
2.7174999999999998,-0.089022122323513031,
2.7200000000000002,-0.088060498237609863,
2.7225000000000001,-0.086810395121574402,
2.7250000000000001,-0.085416041314601898,
2.7275,-0.082651376724243164,
2.73,-0.081449352204799652,
2.7324999999999999,-0.080439649522304535,
2.7349999999999999,-0.079670354723930359,
2.7374999999999998,-0.078780852258205414,
2.7400000000000002,-0.078612565994262695,
2.7425000000000002,-0.078588530421257019,
2.7450000000000001,-0.078660652041435242,
2.7475000000000001,-0.078828930854797363,
2.75,-0.078780852258205414,
2.7524999999999999,-0.078612565994262695,
2.7549999999999999,-0.078227922320365906,
2.7574999999999998,-0.076761446893215179,
2.7599999999999998,-0.075703665614128113,
2.7625000000000002,-0.074453555047512054,
2.7650000000000001,-0.073083244264125824,
2.7675000000000001,-0.070294544100761414,
2.77,-0.069044433534145355,
2.7725,-0.067962609231472015,
2.7749999999999999,-0.067025028169155121,
2.7774999999999999,-0.06570279598236084,
2.7799999999999998,-0.065197944641113281,
2.7825000000000002,-0.064765214920043945,
2.7850000000000001,-0.064380571246147156,
2.7875000000000001,-0.063635312020778656,
2.79,-0.063322782516479492,
2.7925,-0.063082382082939148,
2.7949999999999999,-0.062986217439174652,
2.7974999999999999,-0.06325066089630127,
2.7999999999999998,-0.063563190400600433,
2.8025000000000002,-0.063923798501491547,
2.8050000000000002,-0.064260363578796387,
2.8075000000000001,-0.064548850059509277,
2.8100000000000001,-0.064380571246147156,
2.8125,-0.063995920121669769,
2.8149999999999999,-0.063394904136657715,
2.8174999999999999,-0.061952471733093262,
2.8199999999999998,-0.061303377151489258,
2.8224999999999998,-0.060822568833827972,
2.8250000000000002,-0.060534082353115082,
2.8275000000000001,-0.060726404190063477,
2.8300000000000001,-0.06108701229095459,
2.8325,-0.061495702713727951,
2.835,-0.061904393136501312,
2.8374999999999999,-0.0622890405356884,
2.8399999999999999,-0.06212075799703598,
2.8424999999999998,-0.061712067574262619,
2.8450000000000002,-0.06108701229095459,
2.8475000000000001,-0.059380136430263519,
2.8500000000000001,-0.058466594666242599,
2.8525,-0.057601135224103928,
2.855,-0.056879919022321701,
2.8574999999999999,-0.055918298661708832,
2.8599999999999999,-0.055725973099470139,
2.8624999999999998,-0.055725973099470139,
2.8650000000000002,-0.055846177041530609,
2.8675000000000002,-0.05630294606089592,
2.8700000000000001,-0.056567393243312836,
2.8725000000000001,-0.056831836700439453,
2.875,-0.057000122964382172,
2.8774999999999999,-0.057144366204738617,
2.8799999999999999,-0.057096283882856369,
2.8824999999999998,-0.056952040642499924,
2.8849999999999998,-0.056735675781965256,
2.8875000000000002,-0.056158702820539474,
2.8900000000000001,-0.055870216339826584,
2.8925000000000001,-0.055581729859113693,
2.895,-0.055365364998579025,
2.8975,-0.055149000138044357,
2.8999999999999999,-0.055173039436340332,
2.9024999999999999,-0.055269204080104828,
2.9049999999999998,-0.055413447320461273,
2.9075000000000002,-0.055750012397766113,
2.9100000000000001,-0.055822134017944336,
2.9125000000000001,-0.055774055421352386,
2.915,-0.055533647537231445,
2.9175,-0.05430757999420166,
2.9199999999999999,-0.053273838013410568,
2.9224999999999999,-0.051951609551906586,
2.9249999999999998,-0.050316851586103439,
2.9275000000000002,-0.046446323394775391,
2.9300000000000002,-0.044330757111310959,
2.9325000000000001,-0.04228731244802475,
2.9350000000000001,-0.040436189621686935,
2.9375,-0.037911932915449142,
2.9399999999999999,-0.037527285516262054,
2.9424999999999999,-0.037791728973388672,
2.9449999999999998,-0.038729310035705566,
2.9474999999999998,-0.042263269424438477,
2.9500000000000002,-0.044450961053371429,
2.9525000000000001,-0.046566527336835861,
2.9550000000000001,-0.048249363899230957,
2.9575,-0.049066744744777679,
2.96,-0.047672390937805176,
2.9624999999999999,-0.044883690774440765,
2.9649999999999999,-0.040748715400695801,
2.9674999999999998,-0.029089054092764854,
2.9700000000000002,-0.022213459014892578,
2.9725000000000001,-0.015193621627986431,
2.9750000000000001,-0.0085103511810302734,
2.9775,0.0021396081428974867,
2.98,0.0054812431335449219,
2.9824999999999999,0.0072362027131021023,
2.9849999999999999,0.0073804459534585476,
2.9874999999999998,0.0030771892052143812,
2.9900000000000002,-0.00096162164118140936,
2.9925000000000002,-0.0059380135498940945,
2.9950000000000001,-0.011539459228515625,
2.9975000000000001,-0.023679932579398155,
3,-0.029714107513427734,78.799247741699219
3.0024999999999999,-0.03550788015127182,
3.0049999999999999,-0.040917001664638519,
3.0074999999999998,-0.050220690667629242,
3.0099999999999998,-0.054091215133666992,
3.0125000000000002,-0.057432852685451508,
3.0150000000000001,-0.060293674468994141,
3.0175000000000001,-0.064645014703273773,
3.02,-0.066135525703430176,
3.0225,-0.06707310676574707,
3.0249999999999999,-0.067361593246459961,
3.0274999999999999,-0.065462395548820496,
3.0299999999999998,-0.063082382082939148,
3.0325000000000002,-0.059788823127746582,
3.0350000000000001,-0.055846177041530609,
3.0375000000000001,-0.047864716500043869,
3.04,-0.045292377471923828,
3.0425,-0.044883690774440765,
3.0449999999999999,-0.047576230019330978,
3.0474999999999999,-0.06531815230846405,
3.0499999999999998,-0.081112787127494812,
3.0525000000000002,-0.10123471915721893,
3.0550000000000002,-0.12481848895549774,
3.0575000000000001,-0.17590463161468506,
3.0600000000000001,-0.19888739287853241,
3.0625,-0.21648506820201874,
3.0649999999999999,-0.22566854953765869,
3.0674999999999999,-0.20686885714530945,
3.0699999999999998,-0.17376503348350525,
3.0724999999999998,-0.12241443246603012,
3.0750000000000002,-0.052167974412441254,
3.0775000000000001,0.14147858321666718,
3.0800000000000001,0.25954169034957886,
3.0825,0.38577854633331299,
3.085,0.51391464471817017,
3.0874999999999999,0.74679535627365112,
3.0899999999999999,0.83634638786315918,
3.0924999999999998,0.89875560998916626,
3.0950000000000002,0.92897456884384155,
3.0975000000000001,0.88346582651138306,
3.1000000000000001,0.80978155136108398,
3.1025,0.70789778232574463,
3.105,0.58490633964538574,
3.1074999999999999,0.31065186858177185,
3.1099999999999999,0.1774432361125946,
3.1124999999999998,0.05750497430562973,
3.1150000000000002,-0.043297015130519867,
3.1175000000000002,-0.17571231722831726,
3.1200000000000001,-0.20725350081920624,
3.1225000000000001,-0.21893720328807831,
3.125,-0.21494647860527039,
3.1274999999999999,-0.17890970408916473,
3.1299999999999999,-0.15571057796478271,
3.1324999999999998,-0.13361732661724091,
3.1349999999999998,-0.11472146213054657,
3.1375000000000002,-0.089647173881530762,
3.1400000000000001,-0.082939863204956055,
3.1425000000000001,-0.07887701690196991,
3.145,-0.076424881815910339,
3.1475,-0.072530314326286316,
3.1499999999999999,-0.0699339359998703,
3.1524999999999999,-0.066688463091850281,
3.1549999999999998,-0.06286601722240448,
3.1575000000000002,-0.054644148796796799,
3.1600000000000001,-0.050821702927350998,
3.1625000000000001,-0.047480069100856781,
3.165,-0.044691365212202072,
3.1675,-0.040604472160339355,
3.1699999999999999,-0.03904183954000473,
3.1724999999999999,-0.037623446434736252,
3.1749999999999998,-0.036132931709289551,
3.1775000000000002,-0.032647054642438889,
3.1800000000000002,-0.030531486496329308,
3.1825000000000001,-0.028175514191389084,
3.1850000000000001,-0.025627216324210167,
3.1875,-0.020242135971784592,
3.1899999999999999,-0.017573636025190353,
3.1924999999999999,-0.015025338158011436,
3.1949999999999998,-0.012645324692130089,
3.1974999999999998,-0.0086305541917681694,
3.2000000000000002,-0.0069717569276690483,
3.2025000000000001,-0.0054812431335449219,
3.2050000000000001,-0.0041349730454385281,
3.2075,-0.0014183919411152601,
3.21,0.00012020270514767617,
3.2124999999999999,0.0018992027034983039,
3.2149999999999999,0.0039666891098022461,
3.2174999999999998,0.0090632839128375053,
3.2200000000000002,0.012068351730704308,
3.2225000000000001,0.015313824638724327,
3.2250000000000001,0.018727581948041916,
3.2275,0.025939743965864182,
3.23,0.029593905434012413,
3.2324999999999999,0.033296149224042892,
3.2349999999999999,0.036998391151428223,
3.2374999999999998,0.044499039649963379,
3.2400000000000002,0.048393607139587402,
3.2425000000000002,0.052432417869567871,
3.2450000000000001,0.061111055314540863,
3.2475000000000001,0.065823003649711609,
3.25,0.070799395442008972,
3.2524999999999999,0.076064273715019226,
3.2549999999999999,0.087267160415649414,
3.2574999999999998,0.093133054673671722,
3.2599999999999998,0.099167227745056152,
3.2625000000000002,0.10529756546020508,
3.2650000000000001,0.11787077039480209,
3.2675000000000001,0.12433767318725586,
3.27,0.13092479109764099,
3.2725,0.13765613734722137,
3.2749999999999999,0.15157561004161835,
3.2774999999999999,0.15864352881908417,
3.2799999999999998,0.16571144759654999,
3.2825000000000002,0.17263512313365936,
3.2850000000000001,0.18556892871856689,
3.2875000000000001,0.19131462275981903,
3.29,0.19641122221946716,
3.2925,0.20081064105033875,
3.2949999999999999,0.2044888436794281,
3.2974999999999999,0.20984987914562225,
3.2999999999999998,0.21160483360290527,
3.3025000000000002,0.21280686557292938,
3.3050000000000002,0.2137204110622406,
3.3075000000000001,0.21333575248718262,
3.3100000000000001,0.2122298926115036,
3.3125,0.21028260886669159,
3.3149999999999999,0.20316660404205322,
3.3174999999999999,0.19766132533550262,
3.3199999999999998,0.19076168537139893,
3.3224999999999998,0.1823955774307251,
3.3250000000000002,0.16157647967338562,
3.3275000000000001,0.14941196143627167,
3.3300000000000001,0.13640603423118591,
3.3325,0.12277504056692123,
3.335,0.09476780891418457,
3.3374999999999999,0.080896422266960144,
3.3399999999999999,0.067361593246459961,
3.3424999999999998,0.054331623017787933,
3.3450000000000002,0.030170878395438194,
3.3475000000000001,0.019136270508170128,
3.3500000000000001,0.0087988376617431641,
3.3525,-0.00081737840082496405,
3.355,-0.018078487366437912,
3.3574999999999999,-0.025771459564566612,
3.3599999999999999,-0.032911501824855804,
3.3624999999999998,-0.039474569261074066,
3.3650000000000002,-0.050965946167707443,
3.3675000000000002,-0.055894255638122559,
3.3700000000000001,-0.060317717492580414,
3.3725000000000001,-0.06423632800579071,
3.375,-0.070534944534301758,
3.3774999999999999,-0.073011122643947601,
3.3799999999999999,-0.075078606605529785,
3.3824999999999998,-0.076761446893215179,
3.3849999999999998,-0.079285703599452972,
3.3875000000000002,-0.080223284661769867,
3.3900000000000001,-0.080992579460144043,
3.3925000000000001,-0.08166571706533432,
3.395,-0.082771584391593933,
3.3975,-0.083228349685668945,
3.3999999999999999,-0.083637043833732605,
3.4024999999999999,-0.084021687507629395,
3.4049999999999998,-0.084718868136405945,
3.4075000000000002,-0.085031390190124512,
3.4100000000000001,-0.085367962718009949,
3.4125000000000001,-0.085704527795314789,
3.415,-0.086401700973510742,
3.4175,-0.086762309074401855,
3.4199999999999999,-0.087098881602287292,
3.4224999999999999,-0.087387368083000183,
3.4249999999999998,-0.087723933160305023,
3.4275000000000002,-0.08769989013671875,
3.4300000000000002,-0.087579689919948578,
3.4325000000000001,-0.08731524646282196,
3.4350000000000001,-0.086449787020683289,
3.4375,-0.085896849632263184,
3.4399999999999999,-0.085319876670837402,
3.4424999999999999,-0.084670782089233398,
3.4449999999999998,-0.083372592926025391,
3.4474999999999998,-0.082723498344421387,
3.4500000000000002,-0.082074403762817383,
3.4525000000000001,-0.081497430801391602,
3.4550000000000001,-0.080559849739074707,
3.4575,-0.080271363258361816,
3.46,-0.080151163041591644,
3.4624999999999999,-0.080199241638183594,
3.4649999999999999,-0.080824300646781921,
3.4674999999999998,-0.08132915198802948,
3.4700000000000002,-0.081906124949455261,
3.4725000000000001,-0.082507133483886719,
3.4750000000000001,-0.08349280059337616,
3.4775,-0.083805322647094727,
3.48,-0.083973608911037445,
3.4824999999999999,-0.083997651934623718,
3.4849999999999999,-0.083637043833732605,
3.4874999999999998,-0.083300471305847168,
3.4900000000000002,-0.082891784608364105,
3.4925000000000002,-0.082435011863708496,
3.4950000000000001,-0.081305108964443207,
3.4975000000000001,-0.080656014382839203,
3.5,-0.079910755157470703,
3.5024999999999999,-0.079045295715332031,
3.5049999999999999,-0.07709801197052002,
3.5074999999999998,-0.076040230691432953,
3.5099999999999998,-0.074982449412345886,
3.5125000000000002,-0.073996782302856445,
3.5150000000000001,-0.07243414968252182,
3.5175000000000001,-0.071953341364860535,
3.52,-0.071736976504325867,
3.5225,-0.071736976504325867,
3.5249999999999999,-0.072337985038757324,
3.5274999999999999,-0.072842836380004883,
3.5299999999999998,-0.073347687721252441,
3.5325000000000002,-0.073828503489494324,
3.5350000000000001,-0.074405476450920105,
3.5375000000000001,-0.074429512023925781,
3.54,-0.07426123321056366,
3.5425,-0.073876582086086273,
3.5449999999999999,-0.072650514543056488,
3.5474999999999999,-0.071857176721096039,
3.5499999999999998,-0.070991717278957367,
3.5525000000000002,-0.070102214813232422,
3.5550000000000002,-0.068203017115592957,
3.5575000000000001,-0.067217350006103516,
3.5600000000000001,-0.066207647323608398,
3.5625,-0.065173909068107605,
3.5649999999999999,-0.062962174415588379,
3.5674999999999999,-0.061856310814619064,
3.5699999999999998,-0.060822568833827972,
3.5724999999999998,-0.059860944747924805,
3.5750000000000002,-0.058514676988124847,
3.5775000000000001,-0.058178108185529709,
3.5800000000000001,-0.058105986565351486,
3.5825,-0.058250229805707932,
3.585,-0.059019528329372406,
3.5874999999999999,-0.059476297348737717,
3.5899999999999999,-0.059860944747924805,
3.5924999999999998,-0.060053270310163498,
3.5950000000000002,-0.059764783829450607,
3.5975000000000001,-0.059211850166320801,
3.6000000000000001,-0.058442555367946625,
3.6025,-0.057480931282043457,
3.605,-0.055341325700283051,
3.6074999999999999,-0.05430757999420166,
3.6099999999999999,-0.053345959633588791,
3.6124999999999998,-0.052480500191450119,
3.6150000000000002,-0.051134228706359863,
3.6175000000000002,-0.050557255744934082,
3.6200000000000001,-0.050004325807094574,
3.6225000000000001,-0.049451392143964767,
3.625,-0.048249363899230957,
3.6274999999999999,-0.047600269317626953,
3.6299999999999999,-0.046927135437726974,
3.6324999999999998,-0.046278040856122971,
3.6349999999999998,-0.045196216553449631,
3.6375000000000002,-0.044811569154262543,
3.6400000000000001,-0.044499039649963379,
3.6425000000000001,-0.044258635491132736,
3.645,-0.043753784149885178,
3.6475,-0.04336913675069809,
3.6499999999999999,-0.042816203087568283,
3.6524999999999999,-0.042022865265607834,
3.6549999999999998,-0.039666891098022461,
3.6575000000000002,-0.038104258477687836,
3.6600000000000001,-0.036349296569824219,
3.6625000000000001,-0.034450095146894455,
3.665,-0.030747851356863976,
3.6675,-0.029137134552001953,
3.6699999999999999,-0.027838945388793945,
3.6724999999999999,-0.026973485946655273,
3.6749999999999998,-0.026781162247061729,
3.6775000000000002,-0.027478337287902832,
3.6800000000000002,-0.028632283210754395,
3.6825000000000001,-0.030122797936201096,
3.6850000000000001,-0.033536553382873535,
3.6875,-0.035003028810024261,
3.6899999999999999,-0.036012731492519379,
3.6924999999999999,-0.036325257271528244,
3.6949999999999998,-0.03413756936788559,
3.6974999999999998,-0.031420987099409103,
3.7000000000000002,-0.027598541229963303,
3.7025000000000001,-0.022790431976318359,
3.7050000000000001,-0.010986527428030968,
3.7075,-0.0045917434617877007,
3.71,0.0016107162227854133,
3.7124999999999999,0.0073083243332803249,
3.7149999999999999,0.015770595520734787,
3.7174999999999998,0.018030405044555664,
3.7200000000000002,0.018823742866516113,
3.7225000000000001,0.018126567825675011,
3.7250000000000001,0.012717446312308311,
3.7275,0.0084141893312335014,
3.73,0.0033897161483764648,
3.7324999999999999,-0.002043446060270071,
3.7349999999999999,-0.013270378112792969,
3.7374999999999998,-0.018631419166922569,
3.7400000000000002,-0.023679932579398155,
3.7425000000000002,-0.028319757431745529,
3.7450000000000001,-0.036445461213588715,
3.7475000000000001,-0.040003459900617599,
3.75,-0.043297015130519867,
3.7524999999999999,-0.046350162476301193,
3.7549999999999999,-0.05168716236948967,
3.7574999999999998,-0.053802728652954102,
3.7599999999999998,-0.055341325700283051,
3.7625000000000002,-0.056110620498657227,
3.7650000000000001,-0.054620109498500824,
3.7675000000000001,-0.05214393138885498,
3.77,-0.048658054322004318,
3.7725,-0.044475000351667404,
3.7749999999999999,-0.036445461213588715,
3.7774999999999999,-0.034257769584655762,
3.7799999999999998,-0.0345943383872509,
3.7825000000000002,-0.038392744958400726,
3.7850000000000001,-0.059139728546142578,
3.7875000000000001,-0.076593160629272461,
3.79,-0.098277732729911804,
3.7925,-0.12311160564422607,
3.7949999999999999,-0.17515937983989716,
3.7974999999999999,-0.1975892037153244,
3.7999999999999998,-0.21386465430259705,
3.8025000000000002,-0.220908522605896,
3.8050000000000002,-0.19571404159069061,
3.8075000000000001,-0.15857140719890594,
3.8100000000000001,-0.10284543037414551,
3.8125,-0.028175514191389084,
3.8149999999999999,0.17333230376243591,
3.8174999999999999,0.29423218965530396,
3.8199999999999998,0.42212784290313721,
3.8224999999999998,0.55055242776870728,
3.8250000000000002,0.77925008535385132,
3.8275000000000001,0.86435359716415405,
3.8300000000000001,0.92101716995239258,
3.8325,0.94448071718215942,
3.835,0.88435530662536621,
3.8374999999999999,0.80374741554260254,
3.8399999999999999,0.69587749242782593,
3.8424999999999998,0.56824624538421631,
3.8450000000000002,0.28959235548973083,
3.8475000000000001,0.15676836669445038,
3.8500000000000001,0.038801431655883789,
3.8525,-0.058779120445251465,
3.855,-0.18241962790489197,
3.8574999999999999,-0.2092488706111908,
3.8599999999999999,-0.21658122539520264,
3.8624999999999998,-0.20891229808330536,
3.8650000000000002,-0.16825973987579346,
3.8675000000000002,-0.14426729083061218,
3.8700000000000001,-0.12227018922567368,
3.8725000000000001,-0.10421574115753174,
3.875,-0.08200228214263916,
3.8774999999999999,-0.076833568513393402,
3.8799999999999999,-0.074092946946620941,
3.8824999999999998,-0.072530314326286316,
3.8849999999999998,-0.06890019029378891,
3.8875000000000002,-0.065678760409355164,
3.8900000000000001,-0.06137549877166748,
3.8925000000000001,-0.056230824440717697,
3.895,-0.04507601261138916,
3.8975,-0.039955377578735352,
3.8999999999999999,-0.03550788015127182,
3.9024999999999999,-0.03197392076253891,
3.9049999999999998,-0.027406215667724609,
3.9075000000000002,-0.026132067665457726,
3.9100000000000001,-0.025218527764081955,
3.9125000000000001,-0.024497311562299728,
3.915,-0.022814473137259483,
3.9175,-0.021660527214407921,
3.9199999999999999,-0.020218094810843468,
3.9224999999999999,-0.018463134765625,
3.9249999999999998,-0.014256040565669537,
3.9275000000000002,-0.011876027099788189,
3.9300000000000002,-0.0093758106231689453,
3.9325000000000001,-0.0068034729920327663,
3.9350000000000001,-0.0016107162227854133,
3.9375,0.00096162164118140936,
3.9399999999999999,0.0034618377685546875,
3.9424999999999999,0.0059139728546142578,
3.9449999999999998,0.01060187816619873,
3.9474999999999998,0.012861689552664757,
3.9500000000000002,0.015121500007808208,
3.9525000000000001,0.017429392784833908,
3.9550000000000001,0.022333662956953049,
3.9575,0.025050243362784386,
3.96,0.027983188629150391,
3.9624999999999999,0.031180581077933311,
3.9649999999999999,0.038224458694458008,
3.9674999999999998,0.041998825967311859,
3.9700000000000002,0.04582127183675766,
3.9725000000000001,0.049643717706203461,
3.9750000000000001,0.057024162262678146,
3.9775,0.060534082353115082,
3.98,0.063995920121669769,
3.9824999999999999,0.067433714866638184,
3.9849999999999999,0.074742041528224945,
3.9874999999999998,0.078804895281791687,
3.9900000000000002,0.083276435732841492,
3.9925000000000002,0.088228784501552582,
3.9950000000000001,0.099551878869533539,
3.9975000000000001,0.10589858144521713,
4,0.11260589212179184,78.651687622070312
4.0025000000000004,0.11957764625549316,
4.0049999999999999,0.13405005633831024,
4.0075000000000003,0.14138242602348328,
4.0099999999999998,0.14869074523448944,
4.0125000000000002,0.15592694282531738,
4.0149999999999997,0.1699906587600708,
4.0175000000000001,0.17674605548381805,
4.0199999999999996,0.18326103687286377,
4.0225,0.18948754668235779,
4.0250000000000004,0.20090679824352264,
4.0274999999999999,0.20602743327617645,
4.0300000000000002,0.21069130301475525,
4.0324999999999998,0.21485030651092529,
4.0350000000000001,0.22148549556732178,
4.0374999999999996,0.22381743788719177,
4.04,0.22542814910411835,
4.0425000000000004,0.22617340087890625,
4.0449999999999999,0.22492329776287079,
4.0475000000000003,0.22278368473052979,
4.0499999999999998,0.21956226229667664,
4.0525000000000002,0.21525900065898895,
4.0549999999999997,0.20345509052276611,
4.0575000000000001,0.19597849249839783,
4.0599999999999996,0.18751621246337891,
4.0625,0.17809233069419861,
4.0650000000000004,0.15660008788108826,
4.0674999999999999,0.14460384845733643,
4.0700000000000003,0.13191044330596924,
4.0724999999999998,0.11856794357299805,
4.0750000000000002,0.090608797967433929,
4.0774999999999997,0.076328717172145844,
4.0800000000000001,0.062144797295331955,
4.0824999999999996,0.048297446221113205,
4.085,0.022550027817487717,
4.0875000000000004,0.011034607887268066,
4.0899999999999999,0.00064909458160400391,
4.0925000000000002,-0.0086065139621496201,
4.0949999999999998,-0.023800134658813477,
4.0975000000000001,-0.029930472373962402,
4.0999999999999996,-0.035291515290737152,
4.1025,-0.040075581520795822,
4.1050000000000004,-0.048513811081647873,
4.1074999999999999,-0.052408378571271896,
4.1100000000000003,-0.056110620498657227,
4.1124999999999998,-0.05966862291097641,
4.1150000000000002,-0.066063404083251953,
4.1174999999999997,-0.068731904029846191,
4.1200000000000001,-0.070943638682365417,
4.1224999999999996,-0.072650514543056488,
4.125,-0.07454971969127655,
4.1275000000000004,-0.074814163148403168,
4.1299999999999999,-0.074742041528224945,
4.1325000000000003,-0.074477598071098328,
4.1349999999999998,-0.073756381869316101,
4.1375000000000002,-0.07351597398519516,
4.1399999999999997,-0.073419809341430664,
4.1425000000000001,-0.073491930961608887,
4.1449999999999996,-0.074165068566799164,
4.1475,-0.074645876884460449,
4.1500000000000004,-0.075126692652702332,
4.1524999999999999,-0.075583457946777344,
4.1550000000000002,-0.076160430908203125,
4.1574999999999998,-0.076232552528381348,
4.1600000000000001,-0.076088309288024902,
4.1624999999999996,-0.075799822807312012,
4.165,-0.074838206171989441,
4.1675000000000004,-0.07426123321056366,
4.1699999999999999,-0.073684260249137878,
4.1725000000000003,-0.073203444480895996,
4.1749999999999998,-0.072554349899291992,
4.1775000000000002,-0.07243414968252182,
4.1799999999999997,-0.072410106658935547,
4.1825000000000001,-0.072458192706108093,
4.1849999999999996,-0.072506271302700043,
4.1875,-0.072362028062343597,
4.1900000000000004,-0.072049498558044434,
4.1924999999999999,-0.071568690240383148,
4.1950000000000003,-0.070102214813232422,
4.1974999999999998,-0.06923675537109375,
4.2000000000000002,-0.068371295928955078,
4.2024999999999997,-0.067553922533988953,
4.2050000000000001,-0.06639997661113739,
4.2074999999999996,-0.066087447106838226,
4.21,-0.065967246890068054,
4.2125000000000004,-0.06599128246307373,
4.2149999999999999,-0.066255733370780945,
4.2175000000000002,-0.066375933587551117,
4.2199999999999998,-0.066424012184143066,
4.2225000000000001,-0.066351890563964844,
4.2249999999999996,-0.065798960626125336,
4.2275,-0.06531815230846405,
4.2300000000000004,-0.064741179347038269,
4.2324999999999999,-0.064092084765434265,
4.2350000000000003,-0.062721773982048035,
4.2374999999999998,-0.062072675675153732,
4.2400000000000002,-0.061423581093549728,
4.2424999999999997,-0.060798525810241699,
4.2450000000000001,-0.059644579887390137,
4.2474999999999996,-0.059091649949550629,
4.25,-0.058562755584716797,
4.2525000000000004,-0.058033864945173264,
4.2549999999999999,-0.057072244584560394,
4.2575000000000003,-0.056687593460083008,
4.2599999999999998,-0.056375067681074142,
4.2625000000000002,-0.056182742118835449,
4.2649999999999997,-0.056110620498657227,
4.2675000000000001,-0.056230824440717697,
4.2699999999999996,-0.056375067681074142,
4.2725,-0.056519310921430588,
4.2750000000000004,-0.05659143254160881,
4.2774999999999999,-0.056375067681074142,
4.2800000000000002,-0.055918298661708832,
4.2824999999999998,-0.055245161056518555,
4.2850000000000001,-0.05322575569152832,
4.2874999999999996,-0.051951609551906586,
4.29,-0.050629377365112305,
4.2925000000000004,-0.049307148903608322,
4.2949999999999999,-0.047047339379787445,
4.2975000000000003,-0.046205919235944748,
4.2999999999999998,-0.045628946274518967,
4.3025000000000002,-0.045292377471923828,
4.3049999999999997,-0.045244298875331879,
4.3075000000000001,-0.045460663735866547,
4.3099999999999996,-0.045773189514875412,
4.3125,-0.046109758317470551,
4.3150000000000004,-0.046758852899074554,
4.3174999999999999,-0.047023296356201172,
4.3200000000000003,-0.047215621918439865,
4.3224999999999998,-0.04735986515879631,
4.3250000000000002,-0.047383904457092285,
4.3274999999999997,-0.047287743538618088,
4.3300000000000001,-0.04707137867808342,
4.3324999999999996,-0.046734809875488281,
4.335,-0.045701067894697189,
4.3375000000000004,-0.044979851692914963,
4.3399999999999999,-0.044162474572658539,
4.3425000000000002,-0.043248932808637619,
4.3449999999999998,-0.041349731385707855,
4.3475000000000001,-0.040436189621686935,
4.3499999999999996,-0.039690934121608734,
4.3525,-0.039113961160182953,
4.3550000000000004,-0.038681231439113617,
4.3574999999999999,-0.038849513977766037,
4.3600000000000003,-0.039234161376953125,
4.3624999999999998,-0.039763055741786957,
4.3650000000000002,-0.040892958641052246,
4.3674999999999997,-0.041301649063825607,
4.3700000000000001,-0.041445892304182053,
4.3724999999999996,-0.041301649063825607,
4.375,-0.039907298982143402,
4.3775000000000004,-0.038729310035705566,
4.3799999999999999,-0.037334959954023361,
4.3825000000000003,-0.035796366631984711,
4.3849999999999998,-0.032863419502973557,
4.3875000000000002,-0.031661391258239746,
4.3899999999999997,-0.030771892517805099,
4.3925000000000001,-0.030267041176557541,
4.3949999999999996,-0.030387243255972862,
4.3975,-0.03094017505645752,
4.4000000000000004,-0.031733512878417969,
4.4024999999999999,-0.032647054642438889,
4.4050000000000002,-0.034209690988063812,
4.4074999999999998,-0.03447413444519043,
4.4100000000000001,-0.034185647964477539,
4.4124999999999996,-0.033151905983686447,
4.415,-0.028319757431745529,
4.4175000000000004,-0.02444922924041748,
4.4199999999999999,-0.019641121849417686,
4.4225000000000003,-0.014063715934753418,
4.4249999999999998,-0.0016347568016499281,
4.4275000000000002,0.0044955811463296413,
4.4299999999999997,0.010072986595332623,
4.4325000000000001,0.014688770286738873,
4.4349999999999996,0.019737284630537033,
4.4375,0.019785365089774132,
4.4400000000000004,0.018150608986616135,
4.4424999999999999,0.014881094917654991,
4.4450000000000003,0.0044475002214312553,
4.4474999999999998,-0.0020194053649902344,
4.4500000000000002,-0.0088709592819213867,
4.4524999999999997,-0.015746554359793663,
4.4550000000000001,-0.028319757431745529,
4.4574999999999996,-0.033656757324934006,
4.46,-0.038248501718044281,
4.4625000000000004,-0.042094986885786057,
4.4649999999999999,-0.047960877418518066,
4.4675000000000002,-0.050196647644042969,
4.4699999999999998,-0.052167974412441254,
4.4725000000000001,-0.053922932595014572,
4.4749999999999996,-0.056711636483669281,
4.4775,-0.057529013603925705,
4.4800000000000004,-0.057721339166164398,
4.4824999999999999,-0.057144366204738617,
4.4850000000000003,-0.053249798715114594,
4.4874999999999998,-0.050100486725568771,
4.4900000000000002,-0.046566527336835861,
4.4924999999999997,-0.043272972106933594,
4.4950000000000001,-0.040628515183925629,
4.4974999999999996,-0.043152771890163422,
4.5,-0.04940330982208252,
4.5025000000000004,-0.06000518798828125,
4.5049999999999999,-0.094719730317592621,
4.5075000000000003,-0.11779864877462387,
4.5099999999999998,-0.14306525886058807,
4.5125000000000002,-0.16854822635650635,
4.5149999999999997,-0.21004220843315125,
4.5175000000000001,-0.22016327083110809,
4.5199999999999996,-0.21915356814861298,
4.5225,-0.20408014953136444,
4.5250000000000004,-0.12279908359050751,
4.5274999999999999,-0.054163336753845215,
4.5300000000000002,0.032887458801269531,
4.5324999999999998,0.13645410537719727,
4.5350000000000001,0.37782114744186401,
4.5374999999999996,0.504466712474823,
4.54,0.62582337856292725,
4.5425000000000004,0.73419809341430664,
4.5449999999999999,0.8830571174621582,
4.5475000000000003,0.91192984580993652,
4.5499999999999998,0.9058956503868103,
4.5525000000000002,0.86466610431671143,
4.5549999999999997,0.68904995918273926,
4.5575000000000001,0.56677979230880737,
4.5599999999999996,0.43246528506278992,
4.5625,0.29524189233779907,
4.5650000000000004,0.0461578369140625,
4.5674999999999999,-0.052264135330915451,
4.5700000000000003,-0.12787163257598877,
4.5724999999999998,-0.17958283424377441,
4.5750000000000002,-0.21778325736522675,
4.5774999999999997,-0.21160483360290527,
4.5800000000000001,-0.19487261772155762,
4.5824999999999996,-0.17241875827312469,
4.585,-0.12630900740623474,
4.5875000000000004,-0.10806223005056381,
4.5899999999999999,-0.094695687294006348,
4.5925000000000002,-0.086137257516384125,
4.5949999999999998,-0.080030962824821472,
4.5975000000000001,-0.079910755157470703,
4.5999999999999996,-0.080103084444999695,
4.6025,-0.079718433320522308,
4.6050000000000004,-0.07522284984588623,
4.6074999999999999,-0.07106383889913559,
4.6100000000000003,-0.06599128246307373,
4.6124999999999998,-0.060437917709350586,
4.6150000000000002,-0.049379270523786545,
4.6174999999999997,-0.044475000351667404,
4.6200000000000001,-0.04012366384267807,
4.6224999999999996,-0.036349296569824219,
4.625,-0.030194919556379318,
4.6275000000000004,-0.027574500069022179,
4.6299999999999999,-0.025122364982962608,
4.6325000000000003,-0.022814473137259483,
4.6349999999999998,-0.018415054306387901,
4.6375000000000002,-0.016371607780456543,
4.6399999999999997,-0.014424324035644531,
4.6425000000000001,-0.012573203071951866,
4.6449999999999996,-0.0090632839128375053,
4.6475,-0.0073564052581787109,
4.6500000000000004,-0.0056254863739013672,
4.6524999999999999,-0.0038224458694458008,
4.6550000000000002,4.8081081331474707e-05,
4.6574999999999998,0.0021636486053466797,
4.6600000000000001,0.004351337905973196,
4.6624999999999996,0.0066351890563964844,
4.665,0.01139521598815918,
4.6675000000000004,0.013895432464778423,
4.6699999999999999,0.016443729400634766,
4.6725000000000003,0.019064148887991905,
4.6749999999999998,0.024593472480773926,
4.6775000000000002,0.02752641960978508,
4.6799999999999997,0.03060360811650753,
4.6825000000000001,0.033801000565290451,
4.6849999999999996,0.040652554482221603,
4.6875,0.044306717813014984,
4.6900000000000004,0.048105120658874512,
4.6924999999999999,0.052047770470380783,
4.6950000000000003,0.060317717492580414,
4.6974999999999998,0.064645014703273773,
4.7000000000000002,0.069116555154323578,
4.7024999999999997,0.073708295822143555,
4.7050000000000001,0.083324514329433441,
4.7074999999999996,0.088373027741909027,
4.71,0.093589827418327332,
4.7125000000000004,0.10476867854595184,
4.7149999999999999,0.11077880859375,
4.7175000000000002,0.11707743257284164,
4.7199999999999998,0.12366454303264618,
4.7225000000000001,0.13056418299674988,
4.7249999999999996,0.14506062865257263,
4.7275,0.15248915553092957,
4.7300000000000004,0.15989363193511963,
4.7324999999999999,0.17402946949005127,
4.7350000000000003,0.18052041530609131,
4.7374999999999998,0.18648247420787811,
4.7400000000000002,0.19181947410106659,
4.7424999999999997,0.20054619014263153,
4.7450000000000001,0.20395994186401367,
4.7474999999999996,0.20677268505096436,
4.75,0.20903250575065613,
4.7525000000000004,0.21081149578094482,
4.7549999999999999,0.2128789871931076,
4.7575000000000003,0.21314343810081482,
4.7599999999999998,0.21275877952575684,
4.7625000000000002,0.21165291965007782,
4.7649999999999997,0.20670056343078613,
4.7675000000000001,0.20263771712779999,
4.7699999999999996,0.19737283885478973,
4.7725,0.18309275805950165,
4.7750000000000004,0.17414967715740204,
4.7774999999999999,0.16410073637962341,
4.7800000000000002,0.1531141996383667,
4.7824999999999998,0.14131030440330505,
4.7850000000000001,0.11606772989034653,
4.7874999999999996,0.10294159501791,
4.79,0.089743338525295258,
4.7925000000000004,0.06353914737701416,
4.7949999999999999,0.050821702927350998,
4.7975000000000003,0.038488905876874924,
4.7999999999999998,0.026636919006705284,
4.8025000000000002,0.0048081083223223686,
4.8049999999999997,-0.0050244731828570366,
4.8075000000000001,-0.013991594314575195,
4.8099999999999996,-0.022093256935477257,
4.8125,-0.035628080368041992,
4.8150000000000004,-0.041085284203290939,
4.8174999999999999,-0.045749150216579437,
4.8200000000000003,-0.049739878624677658,
4.8224999999999998,-0.056038498878479004,
4.8250000000000002,-0.05858679860830307,
4.8274999999999997,-0.060870647430419922,
4.8300000000000001,-0.062938138842582703,
4.8324999999999996,-0.066712498664855957,
4.835,-0.068443417549133301,
4.8375000000000004,-0.070078179240226746,
4.8399999999999999,-0.071616768836975098,
4.8425000000000002,-0.074237190186977386,
4.8449999999999998,-0.075270935893058777,
4.8475000000000001,-0.076088309288024902,
4.8499999999999996,-0.07671336829662323,
4.8525,-0.077362462878227234,
4.8550000000000004,-0.077458620071411133,
4.8574999999999999,-0.077434584498405457,
4.8600000000000003,-0.077338419854640961,
4.8624999999999998,-0.07704993337392807,
4.8650000000000002,-0.076905690133571625,
4.8674999999999997,-0.076785489916801453,
4.8700000000000001,-0.076665282249450684,
4.8724999999999996,-0.076376795768737793,
4.875,-0.076160430908203125,
4.8775000000000004,-0.075871944427490234,
4.8799999999999999,-0.075487300753593445,
4.8825000000000003,-0.074525676667690277,
4.8849999999999998,-0.074020825326442719,
4.8875000000000002,-0.073564052581787109,
4.8899999999999997,-0.073203444480895996,
4.8925000000000001,-0.073107287287712097,
4.8949999999999996,-0.073419809341430664,
4.8975,-0.074020825326442719,
4.9000000000000004,-0.074862241744995117,
4.9024999999999999,-0.077001854777336121,
4.9050000000000002,-0.07813175767660141,
4.9074999999999998,-0.079141460359096527,
4.9100000000000001,-0.079934798181056976,
4.9124999999999996,-0.080511771142482758,
4.915,-0.080199241638183594,
4.9175000000000004,-0.07955014705657959,
4.9199999999999999,-0.078564487397670746,
4.9225000000000003,-0.076040230691432953,
4.9249999999999998,-0.074693962931632996,
4.9275000000000002,-0.07346789538860321,
4.9299999999999997,-0.07243414968252182,
4.9325000000000001,-0.071616768836975098,
4.9349999999999996,-0.070751309394836426,
4.9375,-0.070631109178066254,
4.9400000000000004,-0.070583030581474304,
4.9424999999999999,-0.070438787341117859,
4.9450000000000003,-0.070150300860404968,
4.9474999999999998,-0.06964544951915741,
4.9500000000000002,-0.06890019029378891,
4.9524999999999997,-0.06678462028503418,
4.9550000000000001,-0.065510474145412445,
4.9574999999999996,-0.064188241958618164,
4.96,-0.062914095818996429,
4.9625000000000004,-0.060846608132123947,
4.9649999999999999,-0.060125391930341721,
4.9675000000000002,-0.05966862291097641,
4.9699999999999998,-0.059452258050441742,
4.9725000000000001,-0.059548418968915939,
4.9749999999999996,-0.059740744531154633,
4.9775,-0.059957109391689301,
4.9800000000000004,-0.060149431228637695,
4.9824999999999999,-0.060197513550519943,
4.9850000000000003,-0.060029231011867523,
4.9874999999999998,-0.059740744531154633,
4.9900000000000002,-0.059380136430263519,
4.9924999999999997,-0.058490633964538574,
4.9950000000000001,-0.058057904243469238,
4.9974999999999996,-0.057649217545986176,
5,-0.057288609445095062,78.651687622070312
5.0025000000000004,-0.056735675781965256,
5.0049999999999999,-0.05647122859954834,
5.0075000000000003,-0.056206785142421722,
5.0099999999999998,-0.055918298661708832,
5.0125000000000002,-0.05522112175822258,
5.0149999999999997,-0.054764352738857269,
5.0175000000000001,-0.054259501397609711,
5.0199999999999996,-0.053706567734479904,
5.0225,-0.052432417869567871,
5.0250000000000004,-0.051735244691371918,
5.0274999999999999,-0.051014028489589691,
5.0300000000000002,-0.050316851586103439,
5.0324999999999998,-0.049090784043073654,
5.0350000000000001,-0.048658054322004318,
5.0374999999999996,-0.048369567841291428,
5.04,-0.04827340692281723,
5.0425000000000004,-0.04860997200012207,
5.0449999999999999,-0.048922501504421234,
5.0475000000000003,-0.049283109605312347,
5.0499999999999998,-0.049571596086025238,
5.0525000000000002,-0.049547553062438965,
5.0549999999999997,-0.049066744744777679,
5.0575000000000001,-0.048225324600934982,
5.0599999999999996,-0.046999257057905197,
5.0625,-0.045412581413984299,
5.0650000000000004,-0.041518013924360275,
5.0674999999999999,-0.039402447640895844,
5.0700000000000003,-0.037334959954023361,
5.0724999999999998,-0.033873122185468674,
5.0750000000000002,-0.032695136964321136,
5.0774999999999997,-0.03197392076253891,
5.0800000000000001,-0.031781595200300217,
5.0824999999999996,-0.032863419502973557,
5.085,-0.033969283103942871,
5.0875000000000004,-0.035267472267150879,
5.0899999999999999,-0.036565661430358887,
5.0925000000000002,-0.038200419396162033,
5.0949999999999998,-0.038080215454101562,
5.0975000000000001,-0.037070512771606445,
5.0999999999999996,-0.035051107406616211,
5.1025,-0.027935108169913292,
5.1050000000000004,-0.023102959617972374,
5.1074999999999999,-0.017741918563842773,
5.1100000000000003,-0.012236635200679302,
5.1124999999999998,-0.0023559730034321547,
5.1150000000000002,0.0012741487007588148,
5.1174999999999997,0.0036541621666401625,
5.1200000000000001,0.00461578369140625,
5.1224999999999996,0.0022357702255249023,
5.125,-0.00086545944213867188,
5.1275000000000004,-0.0049042701721191406,
5.1299999999999999,-0.0096402568742632866,
5.1325000000000003,-0.019929608330130577,
5.1349999999999998,-0.025050243362784386,
5.1375000000000002,-0.029882391914725304,
5.1399999999999997,-0.034353934228420258,
5.1425000000000001,-0.042167108505964279,
5.1449999999999996,-0.045556824654340744,
5.1475,-0.048682093620300293,
5.1500000000000004,-0.051639080047607422,
5.1524999999999999,-0.057168405503034592,
5.1550000000000002,-0.059716701507568359,
5.1574999999999998,-0.06200055405497551,
5.1600000000000001,-0.063899755477905273,
5.1624999999999996,-0.06570279598236084,
5.165,-0.065221987664699554,
5.1675000000000004,-0.063635312020778656,
5.1699999999999999,-0.060990851372480392,
5.1725000000000003,-0.053466163575649261,
5.1749999999999998,-0.049547553062438965,
5.1775000000000002,-0.046542488038539886,
5.1799999999999997,-0.045340459793806076,
5.1825000000000001,-0.051951609551906586,
5.1849999999999996,-0.061255298554897308,
5.1875,-0.075006484985351562,
5.1900000000000004,-0.0930609330534935,
5.1924999999999999,-0.13864180445671082,
5.1950000000000003,-0.16306698322296143,
5.1974999999999998,-0.18566510081291199,
5.2000000000000002,-0.20369550585746765,
5.2024999999999997,-0.21424929797649384,
5.2050000000000001,-0.20088276267051697,
5.2074999999999996,-0.17162542045116425,
5.21,-0.12469828128814697,
5.2125000000000004,0.024545392021536827,
5.2149999999999999,0.12481848895549774,
5.2175000000000002,0.23845812678337097,
5.2199999999999998,0.36072832345962524,
5.2225000000000001,0.60594183206558228,
5.2249999999999996,0.71422040462493896,
5.2275,0.80290597677230835,
5.2300000000000004,0.86533927917480469,
5.2324999999999999,0.89276951551437378,
5.2350000000000003,0.85420846939086914,
5.2374999999999998,0.78285616636276245,
5.2400000000000002,0.68347257375717163,
5.2424999999999997,0.43008527159690857,
5.2450000000000001,0.29367923736572266,
5.2474999999999996,0.16265830397605896,
5.25,0.044811569154262543,
5.2525000000000004,-0.13003528118133545,
5.2549999999999999,-0.18217921257019043,
5.2575000000000003,-0.21150867640972137,
5.2599999999999998,-0.22098064422607422,
5.2625000000000002,-0.19804596900939941,
5.2649999999999997,-0.17544786632061005,
5.2675000000000001,-0.151335209608078,
5.2699999999999996,-0.12907366454601288,
5.2725,-0.097292065620422363,
5.2750000000000004,-0.088661514222621918,
5.2774999999999999,-0.083997651934623718,
5.2800000000000002,-0.08200228214263916,
5.2824999999999998,-0.080704092979431152,
5.2850000000000001,-0.079237625002861023,
5.2874999999999996,-0.076497003436088562,
5.29,-0.072337985038757324,
5.2925000000000004,-0.061159133911132812,
5.2949999999999999,-0.055173039436340332,
5.2975000000000003,-0.049571596086025238,
5.2999999999999998,-0.04478752613067627,
5.3025000000000002,-0.038224458694458008,
5.3049999999999997,-0.036325257271528244,
5.3075000000000001,-0.035051107406616211,
5.3099999999999996,-0.034113526344299316,
5.3125,-0.032118164002895355,
5.3150000000000004,-0.030723810195922852,
5.3174999999999999,-0.028920769691467285,
5.3200000000000003,-0.026781162247061729,
5.3224999999999998,-0.021900933235883713,
5.3250000000000002,-0.019400715827941895,
5.3274999999999997,-0.017044743523001671,
5.3300000000000001,-0.014881094917654991,
5.3324999999999996,-0.011154810898005962,
5.335,-0.0095200538635253906,
5.3375000000000004,-0.0079333782196044922,
5.3399999999999999,-0.0062745809555053711,
5.3425000000000002,-0.0025002162437886,
5.3449999999999998,-0.00026444596005603671,
5.3475000000000001,0.0022357702255249023,
5.3499999999999996,0.0049523515626788139,
5.3525,0.010842284187674522,
5.3550000000000004,0.013919472694396973,
5.3574999999999999,0.017020702362060547,
5.3600000000000003,0.020145973190665245,
5.3624999999999998,0.026348432525992393,
5.3650000000000002,0.029497742652893066,
5.3674999999999997,0.032743215560913086,
5.3700000000000001,0.036084853112697601,
5.3724999999999996,0.043224893510341644,
5.375,0.04707137867808342,
5.3775000000000004,0.051062107086181641,
5.3799999999999999,0.05522112175822258,
5.3825000000000003,0.06394784152507782,
5.3849999999999998,0.068515539169311523,
5.3875000000000002,0.073203444480895996,
5.3899999999999997,0.078035593032836914,
5.3925000000000001,0.088300906121730804,
5.3949999999999996,0.093782149255275726,
5.3975,0.099551878869533539,
5.4000000000000004,0.10563413798809052,
5.4024999999999999,0.11859198659658432,
5.4050000000000002,0.12539546191692352,
5.4074999999999998,0.13234317302703857,
5.4100000000000001,0.1393149346113205,
5.4124999999999996,0.15306612849235535,
5.415,0.15965323150157928,
5.4175000000000004,0.1659758985042572,
5.4199999999999999,0.17198602855205536,
5.4225000000000003,0.1829485148191452,
5.4249999999999998,0.18794894218444824,
5.4275000000000002,0.19258877635002136,
5.4299999999999997,0.19691607356071472,
5.4325000000000001,0.20446479320526123,
5.4349999999999996,0.20759007334709167,
5.4375,0.21018645167350769,
5.4400000000000004,0.21210968494415283,
5.4424999999999999,0.21338383853435516,
5.4450000000000003,0.21239817142486572,
5.4474999999999998,0.21011433005332947,
5.4500000000000002,0.20646016299724579,
5.4524999999999997,0.19468030333518982,
5.4550000000000001,0.18662671744823456,
5.4574999999999996,0.17720282077789307,
5.46,0.16662499308586121,
5.4625000000000004,0.14277677237987518,
5.4649999999999999,0.12996315956115723,
5.4675000000000002,0.11688511073589325,
5.4699999999999998,0.1036868542432785,
5.4725000000000001,0.077650949358940125,
5.4749999999999996,0.064981579780578613,
5.4775,0.052648782730102539,
5.4800000000000004,0.040700636804103851,
5.4824999999999999,0.018102526664733887,
5.4850000000000003,0.0075246891938149929,
5.4874999999999998,-0.002476175781339407,
5.4900000000000002,-0.01185198687016964,
5.4924999999999997,-0.028439959511160851,
5.4950000000000001,-0.035531919449567795,
5.4974999999999996,-0.041830539703369141,
5.5,-0.047287743538618088,
5.5025000000000004,-0.055966377258300781,
5.5049999999999999,-0.059332054108381271,
5.5075000000000003,-0.06216883659362793,
5.5099999999999998,-0.064596936106681824,
5.5125000000000002,-0.068635746836662292,
5.5149999999999997,-0.070390701293945312,
5.5175000000000001,-0.072025462985038757,
5.5199999999999996,-0.073564052581787109,
5.5225,-0.076280638575553894,
5.5250000000000004,-0.077362462878227234,
5.5274999999999999,-0.078203879296779633,
5.5300000000000002,-0.078780852258205414,
5.5324999999999998,-0.0791655033826828,
5.5350000000000001,-0.079045295715332031,
5.5374999999999996,-0.078780852258205414,
5.54,-0.07846832275390625,
5.5425000000000004,-0.078011557459831238,
5.5449999999999999,-0.077963471412658691,
5.5475000000000003,-0.07808367908000946,
5.5499999999999998,-0.078372165560722351,
5.5525000000000002,-0.079237625002861023,
5.5549999999999997,-0.079718433320522308,
5.5575000000000001,-0.080127120018005371,
5.5599999999999996,-0.080415606498718262,
5.5625,-0.080535814166069031,
5.5650000000000004,-0.080343484878540039,
5.5674999999999999,-0.080054998397827148,
5.5700000000000003,-0.079694390296936035,
5.5724999999999998,-0.079045295715332031,
5.5750000000000002,-0.078852973878383636,
5.5774999999999997,-0.078804895281791687,
5.5800000000000001,-0.078901052474975586,
5.5824999999999996,-0.079598233103752136,
5.585,-0.080103084444999695,
5.5875000000000004,-0.08063197135925293,
5.5899999999999999,-0.081160865724086761,
5.5925000000000002,-0.081906124949455261,
5.5949999999999998,-0.082026325166225433,
5.5975000000000001,-0.081954203546047211,
5.5999999999999996,-0.081689760088920593,
5.6025,-0.08063197135925293,
5.6050000000000004,-0.079934798181056976,
5.6074999999999999,-0.07921358197927475,
5.6100000000000003,-0.078540444374084473,
5.6124999999999998,-0.077530741691589355,
5.6150000000000002,-0.077266298234462738,
5.6174999999999997,-0.077170133590698242,
5.6200000000000001,-0.077170133590698242,
5.6224999999999996,-0.077362462878227234,
5.625,-0.07738649845123291,
5.6275000000000004,-0.077290341258049011,
5.6299999999999999,-0.07704993337392807,
5.6325000000000003,-0.075944066047668457,
5.6349999999999998,-0.075174771249294281,
5.6375000000000002,-0.07426123321056366,
5.6399999999999997,-0.073299609124660492,
5.6425000000000001,-0.071376368403434753,
5.6449999999999996,-0.070534944534301758,
5.6475,-0.069789692759513855,
5.6500000000000004,-0.069140598177909851,
5.6524999999999999,-0.068130895495414734,
5.6550000000000002,-0.067674122750759125,
5.6574999999999998,-0.067217350006103516,
5.6600000000000001,-0.066712498664855957,
5.6624999999999996,-0.065414309501647949,
5.665,-0.064596936106681824,
5.6675000000000004,-0.063659355044364929,
5.6699999999999999,-0.062625609338283539,
5.6725000000000003,-0.060413878411054611,
5.6749999999999998,-0.059380136430263519,
5.6775000000000002,-0.058418512344360352,
5.6799999999999997,-0.057649217545986176,
5.6825000000000001,-0.056711636483669281,
5.6849999999999996,-0.05659143254160881,
5.6875,-0.056663554161787033,
5.6900000000000004,-0.056903958320617676,
5.6924999999999999,-0.05750497430562973,
5.6950000000000003,-0.057697296142578125,
5.6974999999999998,-0.057745378464460373,
5.7000000000000002,-0.05755305290222168,
5.7024999999999997,-0.056543350219726562,
5.7050000000000001,-0.055798094719648361,
5.7074999999999996,-0.055004756897687912,
5.71,-0.054235458374023438,
5.7125000000000004,-0.053129594773054123,
5.7149999999999999,-0.052913229912519455,
5.7175000000000002,-0.052913229912519455,
5.7199999999999998,-0.053105555474758148,
5.7225000000000001,-0.053634446114301682,
5.7249999999999996,-0.053778689354658127,
5.7275,-0.053778689354658127,
5.7300000000000004,-0.053538285195827484,
5.7324999999999999,-0.052360296249389648,
5.7350000000000003,-0.05151887983083725,
5.7374999999999998,-0.05060533806681633,
5.7400000000000002,-0.04969179630279541,
5.7424999999999997,-0.048081081360578537,
5.7450000000000001,-0.047480069100856781,
5.7474999999999996,-0.046999257057905197,
5.75,-0.046614609658718109,
5.7525000000000004,-0.0461578369140625,
5.7549999999999999,-0.046037636697292328,
5.7575000000000003,-0.046037636697292328,
5.7599999999999998,-0.046133797615766525,
5.7625000000000002,-0.046758852899074554,
5.7649999999999997,-0.047287743538618088,
5.7675000000000001,-0.047960877418518066,
5.7699999999999996,-0.048730175942182541,
5.7725,-0.050292812287807465,
5.7750000000000004,-0.050917863845825195,
5.7774999999999999,-0.051374636590480804,
5.7800000000000002,-0.051615040749311447,
5.7824999999999998,-0.051302514970302582,
5.7850000000000001,-0.05077362060546875,
5.7874999999999996,-0.050076447427272797,
5.79,-0.049186944961547852,
5.7925000000000004,-0.047095417976379395,
5.7949999999999999,-0.045893393456935883,
5.7975000000000003,-0.044571161270141602,
5.7999999999999998,-0.043152771890163422,
5.8025000000000002,-0.039907298982143402,
5.8049999999999997,-0.038104258477687836,
5.8075000000000001,-0.036229096353054047,
5.8099999999999996,-0.034377973526716232,
5.8125,-0.031108459457755089,
5.8150000000000004,-0.029930472373962402,
5.8174999999999999,-0.0292332973331213,
5.8200000000000003,-0.029449662193655968,
5.8224999999999998,-0.030435323715209961,
5.8250000000000002,-0.031925838440656662,
5.8274999999999997,-0.033801000565290451,
5.8300000000000001,-0.03796001523733139,
5.8324999999999996,-0.039787095040082932,
5.835,-0.041133366525173187,
5.8375000000000004,-0.041734378784894943,
5.8399999999999999,-0.040051542222499847,
5.8425000000000002,-0.037551324814558029,
5.8449999999999998,-0.033945243805646896,
5.8475000000000001,-0.029329460114240646,
5.8499999999999996,-0.017886161804199219,
5.8525,-0.011659662239253521,
5.8550000000000004,-0.0055774054490029812,
5.8574999999999999,7.2121620178222656e-05,
5.8600000000000003,0.0086305541917681694,
5.8624999999999998,0.011034607887268066,
5.8650000000000002,0.012020270340144634,
5.8674999999999997,0.011539459228515625,
5.8700000000000001,0.0064188241958618164,
5.8724999999999996,0.002091526985168457,
5.875,-0.0030771892052143812,
5.8775000000000004,-0.008822878822684288,
5.8799999999999999,-0.021011432632803917,
5.8825000000000003,-0.026973485946655273,
5.8849999999999998,-0.032574933022260666,
5.8875000000000002,-0.0376715287566185,
5.8899999999999997,-0.046205919235944748,
5.8925000000000001,-0.049571596086025238,
5.8949999999999996,-0.052408378571271896,
5.8975,-0.054740309715270996,
5.9000000000000004,-0.057985782623291016,
5.9024999999999999,-0.05892336368560791,
5.9050000000000002,-0.059356093406677246,
5.9074999999999998,-0.059187810868024826,
5.9100000000000001,-0.056783758103847504,
5.9124999999999996,-0.054475866258144379,
5.915,-0.051542919129133224,
5.9175000000000004,-0.048201285302639008,
5.9199999999999999,-0.04228731244802475,
5.9225000000000003,-0.041013162583112717,
5.9249999999999998,-0.041950743645429611,
5.9275000000000002,-0.045917432755231857,
5.9299999999999997,-0.065534517168998718,
5.9325000000000001,-0.081761881709098816,
5.9349999999999996,-0.10195593535900116,
5.9375,-0.12527525424957275,
5.9400000000000004,-0.17511129379272461,
5.9424999999999999,-0.19737283885478973,
5.9450000000000003,-0.21444162726402283,
5.9474999999999998,-0.22340874373912811,
5.9500000000000002,-0.20581106841564178,
5.9524999999999997,-0.17434200644493103,
5.9550000000000001,-0.12534737586975098,
5.9574999999999996,-0.058130025863647461,
5.96,0.026877325028181076,
5.9625000000000004,0.24211227893829346,
5.9649999999999999,0.36464691162109375,
5.9675000000000002,0.48975390195846558,
5.9699999999999998,0.7195814847946167,
5.9725000000000001,0.80951714515686035,
5.9749999999999996,0.87370538711547852,
5.9775,0.90685725212097168,
5.9800000000000004,0.86961847543716431,
5.9824999999999999,0.8004298210144043,
5.9850000000000003,0.70263290405273438,
5.9874999999999998,0.58303117752075195,
5.9900000000000002,0.3122866153717041,
5.9924999999999997,0.17915010452270508,
5.9950000000000001,0.058370433747768402,
5.9974999999999996,-0.043922066688537598,
6,-0.17979919910430908,80.769233703613281
6.0025000000000004,-0.21268665790557861,
6.0049999999999999,-0.225187748670578,
6.0075000000000003,-0.22143742442131042,
6.0099999999999998,-0.18448710441589355,
6.0125000000000002,-0.16049465537071228,
6.0149999999999997,-0.13770422339439392,
6.0175000000000001,-0.11844774335622787,
6.0199999999999996,-0.094022557139396667,
6.0225,-0.088324949145317078,
6.0250000000000004,-0.085656449198722839,
6.0274999999999999,-0.084718868136405945,
6.0300000000000002,-0.083564922213554382,
6.0324999999999998,-0.081834003329277039,
6.0350000000000001,-0.07887701690196991,
6.0374999999999996,-0.074838206171989441,
6.04,-0.064693093299865723,
6.0425000000000004,-0.059476297348737717,
6.0449999999999999,-0.054668188095092773,
6.0475000000000003,-0.050509177148342133,
6.0499999999999998,-0.044643282890319824,
6.0525000000000002,-0.042840242385864258,
6.0549999999999997,-0.04154205322265625,
6.0575000000000001,-0.040580432862043381,
6.0599999999999996,-0.038657188415527344,
6.0625,-0.037383042275905609,
6.0650000000000004,-0.035724245011806488,
6.0674999999999999,-0.03368079662322998,
6.0700000000000003,-0.028752487152814865,
6.0724999999999998,-0.026132067665457726,
6.0750000000000002,-0.023559730499982834,
6.0774999999999997,-0.021203756332397461,
6.0800000000000001,-0.017333230003714561,
6.0824999999999996,-0.015794634819030762,
6.085,-0.014448365196585655,
6.0875000000000004,-0.013126134872436523,
6.0899999999999999,-0.010072986595332623,
6.0925000000000002,-0.0081257028505206108,
6.0949999999999998,-0.0058418512344360352,
6.0975000000000001,-0.0032695136032998562,
6.0999999999999996,0.0025482974015176296,
6.1025,0.0055774054490029812,
6.1050000000000004,0.0085343923419713974,
6.1074999999999999,0.01137117575854063,
6.1100000000000003,0.016660094261169434,
6.1124999999999998,0.019184350967407227,
6.1150000000000002,0.021732648834586143,
6.1174999999999997,0.024401148781180382,
6.1200000000000001,0.030459364876151085,
6.1224999999999996,0.033969283103942871,
6.125,0.037815771996974945,
6.1275000000000004,0.041998825967311859,
6.1299999999999999,0.051230393350124359,
6.1325000000000003,0.056206785142421722,
6.1349999999999998,0.061399541795253754,
6.1375000000000002,0.06678462028503418,
6.1399999999999997,0.072362028062343597,
6.1425000000000001,0.084069773554801941,
6.1449999999999996,0.090248189866542816,
6.1475,0.096618935465812683,
6.1500000000000004,0.1099373921751976,
6.1524999999999999,0.1168370246887207,
6.1550000000000002,0.12385686486959457,
6.1574999999999998,0.13090074062347412,
6.1600000000000001,0.14498850703239441,
6.1624999999999996,0.15188813209533691,
6.165,0.15861949324607849,
6.1675000000000004,0.16508638858795166,
6.1699999999999999,0.17696242034435272,
6.1725000000000003,0.18222729861736298,
6.1749999999999998,0.18698732554912567,
6.1775000000000002,0.19119441509246826,
6.1799999999999997,0.19778153300285339,
6.1825000000000001,0.20006537437438965,
6.1849999999999996,0.20165205001831055,
6.1875,0.20246943831443787,
6.1900000000000004,0.20155589282512665,
6.1924999999999999,0.19965669512748718,
6.1950000000000003,0.19665162265300751,
6.1974999999999998,0.19249260425567627,
6.2000000000000002,0.18049637973308563,
6.2024999999999997,0.17263512313365936,
6.2050000000000001,0.16359588503837585,
6.2074999999999996,0.15345077216625214,
6.21,0.13039588928222656,
6.2125000000000004,0.1177746057510376,
6.2149999999999999,0.10469655692577362,
6.2175000000000002,0.091305971145629883,
6.2199999999999998,0.064308449625968933,
6.2225000000000001,0.051014028489589691,
6.2249999999999996,0.038104258477687836,
6.2275,0.025675296783447266,
6.2300000000000004,0.0028367838822305202,
6.2324999999999999,-0.0073804459534585476,
6.2350000000000003,-0.016708176583051682,
6.2374999999999998,-0.025146406143903732,
6.2400000000000002,-0.039570730179548264,
6.2424999999999997,-0.045773189514875412,
6.2450000000000001,-0.051446758210659027,
6.2474999999999996,-0.056831836700439453,
6.25,-0.067193314433097839,
6.2525000000000004,-0.072386071085929871,
6.2549999999999999,-0.077626906335353851,
6.2575000000000003,-0.082843706011772156,
6.2599999999999998,-0.092652246356010437,
6.2625000000000002,-0.096907421946525574,
6.2649999999999997,-0.10048945993185043,
6.2675000000000001,-0.10330220311880112,
6.2699999999999996,-0.10633131116628647,
6.2725,-0.10664384067058563,
6.2750000000000004,-0.10633131116628647,
6.2774999999999999,-0.10561009496450424,
6.2800000000000002,-0.1037830114364624,
6.2824999999999998,-0.1030377596616745,
6.2850000000000001,-0.10260502994060516,
6.2874999999999996,-0.10253290832042694,
6.29,-0.10339836776256561,
6.2925000000000004,-0.10421574115753174,
6.2949999999999999,-0.10510524362325668,
6.2975000000000003,-0.10594666004180908,
6.2999999999999998,-0.10707657039165497,
6.3025000000000002,-0.10719677060842514,
6.3049999999999997,-0.10693232715129852,
6.3075000000000001,-0.10633131116628647,
6.3099999999999996,-0.10416766256093979,
6.3125,-0.10277330875396729,
6.3150000000000004,-0.10125875473022461,
6.3174999999999999,-0.099744200706481934,
6.3200000000000003,-0.097219944000244141,
6.3224999999999998,-0.096402570605278015,
6.3250000000000002,-0.095945797860622406,
6.3274999999999997,-0.095897719264030457,
6.3300000000000001,-0.096907421946525574,
6.3324999999999996,-0.097820959985256195,
6.335,-0.098854705691337585,
6.3375000000000004,-0.099888443946838379,
6.3399999999999999,-0.10140299797058105,
6.3425000000000002,-0.10173957049846649,
6.3449999999999998,-0.10173957049846649,
6.3475000000000001,-0.1014510840177536,
6.3499999999999996,-0.10020097345113754,
6.3525,-0.099455714225769043,
6.3550000000000004,-0.09875854104757309,
6.3574999999999999,-0.098181568086147308,
6.3600000000000003,-0.097532473504543304,
6.3624999999999998,-0.097460351884365082,
6.3650000000000002,-0.097412273287773132,
6.3674999999999997,-0.097364187240600586,
6.3700000000000001,-0.096811257302761078,
6.3724999999999996,-0.096186205744743347,
6.375,-0.095272660255432129,
6.3775000000000004,-0.094118714332580566,
6.3799999999999999,-0.091426178812980652,
6.3825000000000003,-0.090127989649772644,
6.3849999999999998,-0.089046165347099304,
6.3875000000000002,-0.088300906121730804,
6.3899999999999997,-0.088084541261196136,
6.3925000000000001,-0.088589392602443695,
6.3949999999999996,-0.089430809020996094,
6.3975,-0.090464554727077484,
6.4000000000000004,-0.092387795448303223,
6.4024999999999999,-0.092988811433315277,
6.4050000000000002,-0.093205176293849945,
6.4074999999999998,-0.092964768409729004,
6.4100000000000001,-0.091305971145629883,
6.4124999999999996,-0.090007781982421875,
6.415,-0.088565349578857422,
6.4175000000000004,-0.087098881602287292,
6.4199999999999999,-0.084358260035514832,
6.4225000000000003,-0.083204314112663269,
6.4249999999999998,-0.082170568406581879,
6.4275000000000002,-0.081257030367851257,
6.4299999999999997,-0.079670354723930359,
6.4325000000000001,-0.078949138522148132,
6.4349999999999996,-0.078300043940544128,
6.4375,-0.077723070979118347,
6.4400000000000004,-0.076833568513393402,
6.4424999999999999,-0.076521039009094238,
6.4450000000000003,-0.07630467414855957,
6.4474999999999998,-0.076112352311611176,
6.4500000000000002,-0.07563154399394989,
6.4524999999999997,-0.075270935893058777,
6.4550000000000001,-0.074742041528224945,
6.4574999999999996,-0.074068903923034668,
6.46,-0.072410106658935547,
6.4625000000000004,-0.071544647216796875,
6.4649999999999999,-0.07072727382183075,
6.4675000000000002,-0.070054136216640472,
6.4699999999999998,-0.069116555154323578,
6.4725000000000001,-0.068876147270202637,
6.4749999999999996,-0.068707868456840515,
6.4775,-0.06856362521648407,
6.4800000000000004,-0.068058773875236511,
6.4824999999999999,-0.067577958106994629,
6.4850000000000003,-0.066928863525390625,
6.4874999999999998,-0.0661114901304245,
6.4900000000000002,-0.064212284982204437,
6.4924999999999997,-0.06325066089630127,
6.4950000000000001,-0.06245732307434082,
6.4974999999999996,-0.06183227151632309,
6.5,-0.06137549877166748,
6.5025000000000004,-0.061519742012023926,
6.5049999999999999,-0.061856310814619064,
6.5075000000000003,-0.062337122857570648,
6.5099999999999998,-0.063346825540065765,
6.5125000000000002,-0.063683390617370605,
6.5149999999999997,-0.063875719904899597,
6.5175000000000001,-0.063827633857727051,
6.5199999999999996,-0.063154503703117371,
6.5225,-0.062625609338283539,
6.5250000000000004,-0.062024593353271484,
6.5274999999999999,-0.061471663415431976,
6.5300000000000002,-0.060654282569885254,
6.5324999999999998,-0.060413878411054611,
6.5350000000000001,-0.060293674468994141,
6.5374999999999996,-0.060269635170698166,
6.54,-0.060125391930341721,
6.5425000000000004,-0.059933066368103027,
6.5449999999999999,-0.059620540589094162,
6.5475000000000003,-0.059163771569728851,
6.5499999999999998,-0.057961743324995041,
6.5525000000000002,-0.057336688041687012,
6.5549999999999997,-0.05675971508026123,
6.5575000000000001,-0.056326985359191895,
6.5599999999999996,-0.055942337960004807,
6.5625,-0.055918298661708832,
6.5650000000000004,-0.055966377258300781,
6.5674999999999999,-0.055942337960004807,
6.5700000000000003,-0.055341325700283051,
6.5724999999999998,-0.054572027176618576,
6.5750000000000002,-0.053418081253767014,
6.5774999999999997,-0.051879487931728363,
6.5800000000000001,-0.047792594879865646,
6.5824999999999996,-0.045460663735866547,
6.585,-0.043152771890163422,
6.5875000000000004,-0.041037201881408691,
6.5899999999999999,-0.037911932915449142,
6.5925000000000002,-0.037166677415370941,
6.5949999999999998,-0.037022434175014496,
6.5975000000000001,-0.037479203194379807,
6.5999999999999996,-0.039811134338378906,
6.6025,-0.041349731385707855,
6.6050000000000004,-0.04291236400604248,
6.6074999999999999,-0.044210553169250488,
6.6100000000000003,-0.045268338173627853,
6.6124999999999998,-0.044619243592023849,
6.6150000000000002,-0.043032567948102951,
6.6174999999999997,-0.040436189621686935,
6.6200000000000001,-0.032358568161725998,
6.6224999999999996,-0.027117729187011719,
6.625,-0.021347999572753906,
6.6275000000000004,-0.015313824638724327,
6.6299999999999999,-0.0037262837868183851,
6.6325000000000003,0.0011779865017160773,
6.6349999999999998,0.0050725541077554226,
6.6375000000000002,0.0077410540543496609,
6.6399999999999997,0.008822878822684288,
6.6425000000000001,0.007140040397644043,
6.6449999999999996,0.0041349730454385281,
6.6475,-4.8081081331474707e-05,
6.6500000000000004,-0.010866324417293072,
6.6524999999999999,-0.016948580741882324,
6.6550000000000002,-0.023102959617972374,
6.6574999999999998,-0.02906501293182373,
6.6600000000000001,-0.039883255958557129,
6.6624999999999996,-0.044523082673549652,
6.665,-0.048634015023708344,
6.6675000000000004,-0.052288174629211426,
6.6699999999999999,-0.058370433747768402,
6.6725000000000003,-0.060894690454006195,
6.6749999999999998,-0.063058339059352875,
6.6775000000000002,-0.064765214920043945,
6.6799999999999997,-0.066207647323608398,
6.6825000000000001,-0.065606638789176941,
6.6849999999999996,-0.06394784152507782,
6.6875,-0.06120721623301506,
6.6900000000000004,-0.053297877311706543,
6.6924999999999999,-0.049018662422895432,
6.6950000000000003,-0.045484703034162521,
6.6974999999999998,-0.043609540909528732,
6.7000000000000002,-0.048585932701826096,
6.7024999999999997,-0.057120323181152344,
6.7050000000000001,-0.070342622697353363,
6.7074999999999996,-0.088228784501552582,
6.71,-0.13527612388134003,
6.7125000000000004,-0.16167263686656952,
6.7149999999999999,-0.18722772598266602,
6.7175000000000002,-0.22499541938304901,
6.7199999999999998,-0.23127000033855438,
6.7225000000000001,-0.22509157657623291,
6.7249999999999996,-0.20379166305065155,
6.7275,-0.16520659625530243,
6.7300000000000004,-0.031613312661647797,
6.7324999999999999,0.06286601722240448,
6.7350000000000003,0.17313997447490692,
6.7374999999999998,0.29541015625,
6.7400000000000002,0.5535094141960144,
6.7424999999999997,0.67537093162536621,
6.7450000000000001,0.78215897083282471,
6.7474999999999996,0.92183452844619751,
6.75,0.94354313611984253,
6.7525000000000004,0.9292149543762207,
6.7549999999999999,0.87911450862884521,
6.7575000000000003,0.68628531694412231,
6.7599999999999998,0.55682700872421265,
6.7625000000000002,0.41691106557846069,
6.7649999999999997,0.27588924765586853,
6.7675000000000001,0.024761756882071495,
6.7699999999999996,-0.072362028062343597,
6.7725,-0.14561355113983154,
6.7750000000000004,-0.19439181685447693,
6.7774999999999999,-0.22694270312786102,
6.7800000000000002,-0.21872083842754364,
6.7824999999999998,-0.20069043338298798,
6.7850000000000001,-0.17770767211914062,
6.7874999999999996,-0.1538594663143158,
6.79,-0.11462529748678207,
6.7925000000000004,-0.10173957049846649,
6.7949999999999999,-0.093301340937614441,
6.7975000000000003,-0.085800692439079285,
6.7999999999999998,-0.084189973771572113,
6.8025000000000002,-0.082459054887294769,
6.8049999999999997,-0.079886719584465027,
6.8075000000000001,-0.071208082139492035,
6.8099999999999996,-0.065438352525234222,
6.8125,-0.059283971786499023,
6.8150000000000004,-0.053297877311706543,
6.8174999999999999,-0.043465297669172287,
6.8200000000000003,-0.040099620819091797,
6.8224999999999998,-0.03783981129527092,
6.8250000000000002,-0.036517582833766937,
6.8274999999999997,-0.035700201988220215,
6.8300000000000001,-0.035604041069746017,
6.8324999999999996,-0.035363636910915375,
6.835,-0.034738581627607346,
6.8375000000000004,-0.03197392076253891,
6.8399999999999999,-0.029834311455488205,
6.8425000000000002,-0.027237933129072189,
6.8449999999999998,-0.024304986000061035,
6.8475000000000001,-0.018054446205496788,
6.8499999999999996,-0.014977256767451763,
6.8525,-0.012020270340144634,
6.8550000000000004,-0.0093036890029907227,
6.8574999999999999,-0.004519621841609478,
6.8600000000000003,-0.0024280946236103773,
6.8624999999999998,-0.00048081082059070468,
6.8650000000000002,0.0013703107833862305,
6.8674999999999997,0.0049523515626788139,
6.8700000000000001,0.0068034729920327663,
6.8724999999999996,0.0087507572025060654,
6.875,0.010818243026733398,
6.8775000000000004,0.015506148338317871,
6.8799999999999999,0.018246769905090332,
6.8825000000000003,0.021275877952575684,
6.8849999999999998,0.02461751364171505,
6.8875000000000002,0.032358568161725998,
6.8899999999999997,0.036709904670715332,
6.8925000000000001,0.041349731385707855,
6.8949999999999996,0.046229958534240723,
6.8975,0.056375067681074142,
6.9000000000000004,0.061519742012023926,
6.9024999999999999,0.066664420068264008,
6.9050000000000002,0.071785055100917816,
6.9074999999999998,0.081954203546047211,
6.9100000000000001,0.087050795555114746,
6.9124999999999996,0.092243552207946777,
6.915,0.097604595124721527,
6.9175000000000004,0.10904788970947266,
6.9199999999999999,0.11522631347179413,
6.9225000000000003,0.12174129486083984,
6.9249999999999998,0.128592848777771,
6.9275000000000002,0.14299313724040985,
6.9299999999999997,0.15037357807159424,
6.9325000000000001,0.15772998332977295,
6.9349999999999996,0.16491810977458954,
6.9375,0.17845293879508972,
6.9400000000000004,0.18463134765625,
6.9424999999999999,0.19032895565032959,
6.9450000000000003,0.19552171230316162,
6.9474999999999998,0.20456096529960632,
6.9500000000000002,0.20843148231506348,
6.9524999999999997,0.21189332008361816,
6.9550000000000001,0.21499454975128174,
6.9574999999999996,0.2198747843503952,
6.96,0.22150954604148865,
6.9625000000000004,0.22244712710380554,
6.9649999999999999,0.22251924872398376,
6.9675000000000002,0.2193218469619751,
6.9699999999999998,0.21573981642723083,
6.9725000000000001,0.21066725254058838,
6.9749999999999996,0.20410418510437012,
6.9775,0.1960025280714035,
6.9800000000000004,0.17578443884849548,
6.9824999999999999,0.16395649313926697,
6.9850000000000003,0.151335209608078,
6.9874999999999998,0.12455403804779053,
6.9900000000000002,0.1108749732375145,
6.9924999999999997,0.097268030047416687,
6.9950000000000001,0.083877444267272949,
6.9974999999999996,0.058226190507411957,
7,0.046085715293884277,81.395347595214844
7.0025000000000004,0.03447413444519043,
7.0049999999999999,0.023439526557922363,
7.0075000000000003,0.0030531487427651882,
7.0099999999999998,-0.0062745809555053711,
7.0125000000000002,-0.015049378387629986,
7.0149999999999997,-0.023247202858328819,
7.0175000000000001,-0.03796001523733139,
7.0199999999999996,-0.044475000351667404,
7.0225,-0.050388973206281662,
7.0250000000000004,-0.055701933801174164,
7.0274999999999999,-0.064428649842739105,
7.0300000000000002,-0.067842409014701843,
7.0324999999999998,-0.070631109178066254,
7.0350000000000001,-0.072842836380004883,
7.0374999999999996,-0.075895987451076508,
7.04,-0.076929733157157898,
7.0425000000000004,-0.077747106552124023,
7.0449999999999999,-0.07846832275390625,
7.0475000000000003,-0.079862676560878754,
7.0499999999999998,-0.080559849739074707,
7.0525000000000002,-0.081257030367851257,
7.0549999999999997,-0.081906124949455261,
7.0575000000000001,-0.082963906228542328,
7.0599999999999996,-0.083276435732841492,
7.0625,-0.083468757569789886,
7.0650000000000004,-0.083516836166381836,
7.0674999999999999,-0.083348557353019714,
7.0700000000000003,-0.083180271089076996,
7.0724999999999998,-0.082963906228542328,
7.0750000000000002,-0.082771584391593933,
7.0774999999999997,-0.082290768623352051,
7.0800000000000001,-0.08200228214263916,
7.0824999999999996,-0.08166571706533432,
7.085,-0.081257030367851257,
7.0875000000000004,-0.080319449305534363,
7.0899999999999999,-0.079814597964286804,
7.0925000000000002,-0.079309746623039246,
7.0949999999999998,-0.078852973878383636,
7.0975000000000001,-0.078059636056423187,
7.0999999999999996,-0.077674984931945801,
7.1025,-0.077314376831054688,
7.1050000000000004,-0.076929733157157898,
7.1074999999999999,-0.07601618766784668,
7.1100000000000003,-0.075511336326599121,
7.1124999999999998,-0.075006484985351562,
7.1150000000000002,-0.074573755264282227,
7.1174999999999997,-0.074092946946620941,
7.1200000000000001,-0.074165068566799164,
7.1224999999999996,-0.074429512023925781,
7.125,-0.07493436336517334,
7.1275000000000004,-0.076448917388916016,
7.1299999999999999,-0.077290341258049011,
7.1325000000000003,-0.078059636056423187,
7.1349999999999998,-0.078708730638027191,
7.1375000000000002,-0.0791655033826828,
7.1399999999999997,-0.078901052474975586,
7.1425000000000001,-0.078276000916957855,
7.1449999999999996,-0.077338419854640961,
7.1475,-0.074621841311454773,
7.1500000000000004,-0.073035165667533875,
7.1524999999999999,-0.071376368403434753,
7.1550000000000002,-0.069789692759513855,
7.1574999999999998,-0.067025028169155121,
7.1600000000000001,-0.066015325486660004,
7.1624999999999996,-0.065294109284877777,
7.165,-0.064885422587394714,
7.1675000000000004,-0.064957544207572937,
7.1699999999999999,-0.065366230905056,
7.1725000000000003,-0.065919160842895508,
7.1749999999999998,-0.066520176827907562,
7.1775000000000002,-0.067577958106994629,
7.1799999999999997,-0.06786644458770752,
7.1825000000000001,-0.067914530634880066,
7.1849999999999996,-0.067698165774345398,
7.1875,-0.066592298448085785,
7.1900000000000004,-0.065823003649711609,
7.1924999999999999,-0.065053701400756836,
7.1950000000000003,-0.064308449625968933,
7.1974999999999998,-0.063154503703117371,
7.2000000000000002,-0.062769852578639984,
7.2024999999999997,-0.06245732307434082,
7.2050000000000001,-0.062192879617214203,
7.2074999999999996,-0.06137549877166748,
7.21,-0.060702364891767502,
7.2125000000000004,-0.059788823127746582,
7.2149999999999999,-0.05863487720489502,
7.2175000000000002,-0.055774055421352386,
7.2199999999999998,-0.054235458374023438,
7.2225000000000001,-0.05276898667216301,
7.2249999999999996,-0.051470797508955002,
7.2275,-0.049667757004499435,
7.2300000000000004,-0.049259066581726074,
7.2324999999999999,-0.049138866364955902,
7.2350000000000003,-0.049283109605312347,
7.2374999999999998,-0.049571596086025238,
7.2400000000000002,-0.050292812287807465,
7.2424999999999997,-0.050557255744934082,
7.2450000000000001,-0.050653420388698578,
7.2474999999999996,-0.050292812287807465,
7.25,-0.049884121865034103,
7.2525000000000004,-0.049379270523786545,
7.2549999999999999,-0.048826336860656738,
7.2575000000000003,-0.047864716500043869,
7.2599999999999998,-0.04752814769744873,
7.2625000000000002,-0.047311782836914062,
7.2649999999999997,-0.04719158262014389,
7.2675000000000001,-0.047215621918439865,
7.2699999999999996,-0.047311782836914062,
7.2725,-0.047407947480678558,
7.2750000000000004,-0.047552190721035004,
7.2774999999999999,-0.047888755798339844,
7.2800000000000002,-0.048129163682460785,
7.2824999999999998,-0.048465728759765625,
7.2850000000000001,-0.048874419182538986,
7.2874999999999996,-0.049836039543151855,
7.29,-0.050292812287807465,
7.2925000000000004,-0.050581298768520355,
7.2949999999999999,-0.050677459686994553,
7.2975000000000003,-0.049812000244855881,
7.2999999999999998,-0.048802297562360764,
7.3025000000000002,-0.047383904457092285,
7.3049999999999997,-0.045604906976222992,
7.3075000000000001,-0.041325688362121582,
7.3099999999999996,-0.03904183954000473,
7.3125,-0.036854147911071777,
7.3150000000000004,-0.034834742546081543,
7.3174999999999999,-0.031709473580121994,
7.3200000000000003,-0.030675729736685753,
7.3224999999999998,-0.030050676316022873,
7.3250000000000002,-0.029810270294547081,
7.3274999999999997,-0.030411284416913986,
7.3300000000000001,-0.031156539916992188,
7.3324999999999996,-0.03214220330119133,
7.335,-0.03322402760386467,
7.3375000000000004,-0.035291515290737152,
7.3399999999999999,-0.035916566848754883,
7.3425000000000002,-0.036012731492519379,
7.3449999999999998,-0.035387676209211349,
7.3475000000000001,-0.031396947801113129,
7.3499999999999996,-0.027862986549735069,
7.3525,-0.023343365639448166,
7.3550000000000004,-0.017934244126081467,
7.3574999999999999,-0.011876027099788189,
7.3600000000000003,0.00081737840082496405,
7.3624999999999998,0.0066832704469561577,
7.3650000000000002,0.011731783859431744,
7.3674999999999997,0.017910202965140343,
7.3700000000000001,0.018583338707685471,
7.3724999999999996,0.017501514405012131,
7.375,0.014712810516357422,
7.3775000000000004,0.004784067627042532,
7.3799999999999999,-0.0017790000420063734,
7.3825000000000003,-0.0088950004428625107,
7.3849999999999998,-0.016179284080862999,
7.3875000000000002,-0.023223161697387695,
7.3899999999999997,-0.035291515290737152,
7.3925000000000001,-0.039883255958557129,
7.3949999999999996,-0.04336913675069809,
7.3975,-0.047167539596557617,
7.4000000000000004,-0.047840677201747894,
7.4024999999999999,-0.048008959740400314,
7.4050000000000002,-0.047936838120222092,
7.4074999999999998,-0.047960877418518066,
7.4100000000000001,-0.04827340692281723,
7.4124999999999996,-0.048778258264064789,
7.415,-0.049307148903608322,
7.4175000000000004,-0.049619674682617188,
7.4199999999999999,-0.049042701721191406,
7.4225000000000003,-0.047864716500043869,
7.4249999999999998,-0.046278040856122971,
7.4275000000000002,-0.043777823448181152,
7.4299999999999997,-0.044330757111310959,
7.4325000000000001,-0.047263704240322113,
7.4349999999999996,-0.053466163575649261,
7.4375,-0.078059636056423187,
7.4400000000000004,-0.096715092658996582,
7.4424999999999999,-0.11885643005371094,
7.4450000000000003,-0.14325758814811707,
7.4474999999999998,-0.19073764979839325,
7.4500000000000002,-0.20864784717559814,
7.4524999999999997,-0.21872083842754364,
7.4550000000000001,-0.21785537898540497,
7.4574999999999996,-0.17234663665294647,
7.46,-0.12352029979228973,
7.4625000000000004,-0.056014459580183029,
7.4649999999999999,0.029738148674368858,
7.4675000000000002,0.24713675677776337,
7.4699999999999998,0.37068110704421997,
7.4725000000000001,0.49646121263504028,
7.4749999999999996,0.61740916967391968,
7.4775,0.81480604410171509,
7.4800000000000004,0.87723934650421143,
7.4824999999999999,0.90817952156066895,
7.4850000000000003,0.90462148189544678,
7.4874999999999998,0.79463601112365723,
7.4900000000000002,0.69513225555419922,
7.4924999999999997,0.57447278499603271,
7.4950000000000001,0.44102370738983154,
7.4974999999999996,0.17191390693187714,
7.5,0.052841108292341232,
7.5025000000000004,-0.047383904457092285,
7.5049999999999999,-0.12498676776885986,
7.5075000000000003,-0.20944118499755859,
7.5099999999999998,-0.22011518478393555,
7.5125000000000002,-0.21489839255809784,
7.5149999999999997,-0.19859890639781952,
7.5175000000000001,-0.15171985328197479,
7.5199999999999996,-0.12880921363830566,
7.5225,-0.10962486267089844,
7.5250000000000004,-0.095200538635253906,
7.5274999999999999,-0.080054998397827148,
7.5300000000000002,-0.077482663094997406,
7.5324999999999998,-0.076545082032680511,
7.5350000000000001,-0.076040230691432953,
7.5374999999999996,-0.073035165667533875,
7.54,-0.069837771356105804,
7.5425000000000004,-0.065582595765590668,
7.5449999999999999,-0.060630243271589279,
7.5475000000000003,-0.050340890884399414,
7.5499999999999998,-0.045749150216579437,
7.5525000000000002,-0.041758418083190918,
7.5549999999999997,-0.038464866578578949,
7.5575000000000001,-0.033416353166103363,
7.5599999999999996,-0.031300783157348633,
7.5625,-0.029137134552001953,
7.5650000000000004,-0.026829242706298828,
7.5674999999999999,-0.021540325134992599,
7.5700000000000003,-0.018655460327863693,
7.5724999999999998,-0.015746554359793663,
7.5750000000000002,-0.012981891632080078,
7.5774999999999997,-0.0083420677110552788,
7.5800000000000001,-0.006611148826777935,
7.5824999999999996,-0.0052408380433917046,
7.585,-0.0042070946656167507,
7.5875000000000004,-0.0024521350860595703,
7.5899999999999999,-0.0014424324035644531,
7.5925000000000002,-0.00014424324035644531,
7.5949999999999998,0.0015626351814717054,
7.5975000000000001,0.0063707432709634304,
7.5999999999999996,0.0094238920137286186,
7.6025,0.01276552677154541,
7.6050000000000004,0.01629948616027832,
7.6074999999999999,0.023439526557922363,
7.6100000000000003,0.026829242706298828,
7.6124999999999998,0.030002593994140625,
7.6150000000000002,0.032959580421447754,
7.6174999999999997,0.038440823554992676,
7.6200000000000001,0.041109323501586914,
7.6224999999999996,0.043849945068359375,
7.625,0.046782892197370529,
7.6275000000000004,0.053466163575649261,
7.6299999999999999,0.057312648743391037,
7.6325000000000003,0.061519742012023926,
7.6349999999999998,0.066135525703430176,
7.6375000000000002,0.076424881815910339,
7.6399999999999997,0.082098446786403656,
7.6425000000000001,0.088060498237609863,
7.6449999999999996,0.094287000596523285,
7.6475,0.10731697082519531,
7.6500000000000004,0.11400024592876434,
