Data Set 1:Time(s),Data Set 1:EKG(mV),Data Set 1:Heart Rate(bpm),Data Set 2:Time(s),Data Set 2:EKG(mV),Data Set 2:Heart Rate(bpm)
0,-0.11669278144836426,0,0,-0.70994120836257935,59.999996185302734
0.0025000000000000001,-0.12236635386943817,,0.0025000000000000001,-0.71032583713531494,
0.0050000000000000001,-0.12710234522819519,,0.0050000000000000001,-0.71114325523376465,
0.0074999999999999997,-0.13029973208904266,,0.0074999999999999997,-0.71220099925994873,
0.01,-0.13169407844543457,,0.01,-0.71325880289077759,
0.012500000000000001,-0.13123731315135956,,0.012500000000000001,-0.71417236328125,
0.014999999999999999,-0.12599647045135498,,0.014999999999999999,-0.71496570110321045,
0.017500000000000002,-0.12222211062908173,,0.017500000000000002,-0.71477335691452026,
0.02,-0.11847178637981415,,0.02,-0.71321070194244385,
0.022499999999999999,-0.11272609233856201,,0.022499999999999999,-0.71184039115905762,
0.025000000000000001,-0.11118750274181366,,0.025000000000000001,-0.71010947227478027,
0.0275,-0.11044224351644516,,0.0275,-0.70799392461776733,
0.029999999999999999,-0.11027395725250244,,0.029999999999999999,-0.70232033729553223,
0.032500000000000001,-0.11024992167949677,,0.032500000000000001,-0.69864213466644287,
0.035000000000000003,-0.10976910591125488,,0.035000000000000003,-0.69433891773223877,
0.037499999999999999,-0.10880748927593231,,0.037499999999999999,-0.68936252593994141,
0.040000000000000001,-0.10741313546895981,,0.040000000000000001,-0.6776307225227356,
0.042500000000000003,-0.10428786277770996,,0.042500000000000003,-0.67106765508651733,
0.044999999999999998,-0.10330220311880112,,0.044999999999999998,-0.66426420211791992,
0.047500000000000001,-0.10315795987844467,,0.047500000000000001,-0.65741264820098877,
0.050000000000000003,-0.1063072681427002,,0.050000000000000003,-0.64457499980926514,
0.052499999999999998,-0.10957678407430649,,0.052499999999999998,-0.63902163505554199,
0.055,-0.11359155178070068,,0.055,-0.63433372974395752,
0.057500000000000002,-0.11791884899139404,,0.057500000000000002,-0.63065552711486816,
0.059999999999999998,-0.12202978134155273,,0.059999999999999998,-0.62666475772857666,
0.0625,-0.12741486728191376,,0.0625,-0.62637627124786377,
0.065000000000000002,-0.12787163257598877,,0.065000000000000002,-0.62712156772613525,
0.067500000000000004,-0.12666961550712585,,0.067500000000000004,-0.62873226404190063,
0.070000000000000007,-0.11989017575979233,,0.070000000000000007,-0.63358843326568604,
0.072499999999999995,-0.11520227044820786,,0.072499999999999995,-0.63620889186859131,
0.074999999999999997,-0.11046628654003143,,0.074999999999999997,-0.63844466209411621,
0.077499999999999999,-0.10633131116628647,,0.077499999999999999,-0.63993513584136963,
0.080000000000000002,-0.10337432473897934,,0.080000000000000002,-0.6392139196395874,
0.082500000000000004,-0.10241270065307617,,0.082500000000000004,-0.63644927740097046,
0.085000000000000006,-0.10460039228200912,,0.085000000000000006,-0.63180947303771973,
0.087499999999999994,-0.10827859491109848,,0.087499999999999994,-0.62534254789352417,
0.089999999999999997,-0.11294245719909668,,0.089999999999999997,-0.60750448703765869,
0.092499999999999999,-0.12272696197032928,,0.092499999999999999,-0.59683048725128174,
0.095000000000000001,-0.12654940783977509,,0.095000000000000001,-0.58565163612365723,
0.097500000000000003,-0.12895345687866211,,0.097500000000000003,-0.57452082633972168,
0.10000000000000001,-0.12957851588726044,,0.10000000000000001,-0.55471146106719971,
0.10249999999999999,-0.12529930472373962,,0.10249999999999999,-0.54701846837997437,
0.105,-0.12080371379852295,,0.105,-0.54129683971405029,
0.1075,-0.11532247066497803,,0.1075,-0.53771477937698364,
0.11,-0.10936041921377182,,0.11,-0.53696954250335693,
0.1125,-0.098325811326503754,,0.1125,-0.5394216775894165,
0.115,-0.094238921999931335,,0.115,-0.54334026575088501,
0.11749999999999999,-0.09164254367351532,,0.11749999999999999,-0.54834067821502686,
0.12,-0.09164254367351532,,0.12,-0.55990421772003174,
0.1225,-0.094335079193115234,,0.1225,-0.56567394733428955,
0.125,-0.09871046245098114,,0.125,-0.57096284627914429,
0.1275,-0.10455231368541718,,0.1275,-0.5755305290222168,
0.13,-0.1115240678191185,,0.13,-0.58178108930587769,
0.13250000000000001,-0.12722253799438477,,0.13250000000000001,-0.58331966400146484,
0.13500000000000001,-0.13501167297363281,,0.13500000000000001,-0.58384859561920166,
0.13750000000000001,-0.14215171337127686,,0.13750000000000001,-0.58346390724182129,
0.14000000000000001,-0.15306612849235535,,0.14000000000000001,-0.58096373081207275,
0.14249999999999999,-0.15645584464073181,,0.14249999999999999,-0.57928085327148438,
0.14499999999999999,-0.1585233211517334,,0.14499999999999999,-0.57762205600738525,
0.14749999999999999,-0.15960514545440674,,0.14749999999999999,-0.5760834813117981,
0.14999999999999999,-0.16071102023124695,,0.14999999999999999,-0.57339096069335938,
0.1525,-0.16186496615409851,,0.1525,-0.57194852828979492,
0.155,-0.16414880752563477,,0.155,-0.57007336616516113,
0.1575,-0.16777893900871277,,0.1575,-0.56757313013076782,
0.16,-0.1791260689496994,,0.16,-0.56009650230407715,
0.16250000000000001,-0.18604974448680878,,0.16250000000000001,-0.55536055564880371,
0.16500000000000001,-0.19287726283073425,,0.16500000000000001,-0.55060052871704102,
0.16750000000000001,-0.19886335730552673,,0.16750000000000001,-0.54658573865890503,
0.17000000000000001,-0.20321469008922577,,0.17000000000000001,-0.54475867748260498,
0.17249999999999999,-0.20530621707439423,,0.17249999999999999,-0.54896575212478638,
0.17499999999999999,-0.20302236080169678,,0.17499999999999999,-0.55766844749450684,
0.17749999999999999,-0.1992720365524292,,0.17749999999999999,-0.57115519046783447,
0.17999999999999999,-0.19165119528770447,,0.17999999999999999,-0.61096632480621338,
0.1825,-0.19044916331768036,,0.1825,-0.63498282432556152,
0.185,-0.19275705516338348,,0.185,-0.6591675877571106,
0.1875,-0.19958457350730896,,0.1875,-0.68097233772277832,
0.19,-0.22840917110443115,,0.19,-0.70585429668426514,
0.1925,-0.2498052567243576,,0.1925,-0.70306563377380371,
0.19500000000000001,-0.27435064315795898,,0.19500000000000001,-0.68657380342483521,
0.19750000000000001,-0.30026635527610779,,0.19750000000000001,-0.6543114185333252,
0.20000000000000001,-0.3469771146774292,,0.20000000000000001,-0.53846001625061035,
0.20250000000000001,-0.36253136396408081,,0.20250000000000001,-0.45537590980529785,
0.20499999999999999,-0.36931079626083374,,0.20499999999999999,-0.35786747932434082,
0.20749999999999999,-0.36491137742996216,,0.20749999999999999,-0.24937252700328827,
0.20999999999999999,-0.31464260816574097,,0.20999999999999999,-0.019088190048933029,
0.21249999999999999,-0.26639324426651001,,0.21249999999999999,0.090368390083312988,
0.215,-0.20249347388744354,,0.215,0.18696328997612,
0.2175,-0.12409727275371552,,0.2175,0.26410937309265137,
0.22,0.06565471738576889,,0.22,0.33825039863586426,
0.2225,0.16874055564403534,,0.2225,0.32861015200614929,
0.22500000000000001,0.26997527480125427,,0.22500000000000001,0.28702002763748169,
0.22750000000000001,0.36303621530532837,,0.22750000000000001,0.2159561812877655,
0.23000000000000001,0.49879312515258789,,0.23000000000000001,0.0063947839662432671,
0.23250000000000001,0.53035837411880493,,0.23250000000000001,-0.11751016229391098,
0.23499999999999999,0.53259414434432983,,0.23499999999999999,-0.24312198162078857,
0.23749999999999999,0.50422632694244385,,0.23749999999999999,-0.36241114139556885,
0.23999999999999999,0.36245924234390259,,0.23999999999999999,-0.55610579252243042,
0.24249999999999999,0.25821945071220398,,0.24249999999999999,-0.62231343984603882,
0.245,0.14090161025524139,,0.245,-0.66621148586273193,
0.2475,0.018655460327863693,,0.2475,-0.68902593851089478,
0.25,-0.20859977602958679,,0.25,-0.68390530347824097,
0.2525,-0.30033847689628601,,0.2525,-0.66440844535827637,
0.255,-0.37166675925254822,,0.255,-0.63952648639678955,
0.25750000000000001,-0.42104601860046387,,0.25750000000000001,-0.61308187246322632,
0.26000000000000001,-0.45857331156730652,,0.26000000000000001,-0.56637108325958252,
0.26250000000000001,-0.45318824052810669,,0.26250000000000001,-0.54898977279663086,
0.26500000000000001,-0.43763399124145508,,0.26500000000000001,-0.53593575954437256,
0.26750000000000002,-0.41655045747756958,,0.26750000000000002,-0.52668017148971558,
0.27000000000000002,-0.37315726280212402,,0.27000000000000002,-0.51557344198226929,
0.27250000000000002,-0.35592019557952881,,0.27250000000000002,-0.51170289516448975,
0.27500000000000002,-0.34303447604179382,,0.27500000000000002,-0.50788044929504395,
0.27750000000000002,-0.33428370952606201,,0.27750000000000002,-0.50367337465286255,
0.28000000000000003,-0.32519638538360596,,0.28000000000000003,-0.49357634782791138,
0.28249999999999997,-0.32233557105064392,,0.28249999999999997,-0.48797488212585449,
0.28499999999999998,-0.31923434138298035,,0.28499999999999998,-0.48239749670028687,
0.28749999999999998,-0.31529170274734497,,0.28749999999999998,-0.47708451747894287,
0.28999999999999998,-0.30495426058769226,,0.28999999999999998,-0.46821355819702148,
0.29249999999999998,-0.29935282468795776,,0.29249999999999998,-0.4647517204284668,
0.29499999999999998,-0.29430431127548218,,0.29499999999999998,-0.46186685562133789,
0.29749999999999999,-0.29026550054550171,,0.29749999999999999,-0.4593425989151001,
0.29999999999999999,-0.28639495372772217,,0.29999999999999999,-0.45453450083732605,
0.30249999999999999,-0.28641900420188904,,0.30249999999999999,-0.45181792974472046,
0.30499999999999999,-0.28730851411819458,,0.30499999999999999,-0.44864457845687866,
0.3075,-0.28860670328140259,,0.3075,-0.44496637582778931,
0.31,-0.2906501293182373,,0.31,-0.43626368045806885,
0.3125,-0.29084247350692749,,0.3125,-0.43152770400047302,
0.315,-0.29036164283752441,,0.315,-0.42681574821472168,
0.3175,-0.28927981853485107,,0.3175,-0.42232018709182739,
0.32000000000000001,-0.28601032495498657,,0.32000000000000001,-0.41469931602478027,
0.32250000000000001,-0.28418323397636414,,0.32250000000000001,-0.41179043054580688,
0.32500000000000001,-0.2823561429977417,,0.32500000000000001,-0.40945848822593689,
0.32750000000000001,-0.28048098087310791,,0.32750000000000001,-0.4075833261013031,
0.33000000000000002,-0.27624985575675964,,0.33000000000000002,-0.40448209643363953,
0.33250000000000002,-0.27358135581016541,,0.33250000000000002,-0.40289542078971863,
0.33500000000000002,-0.27035993337631226,,0.33500000000000002,-0.40106832981109619,
0.33750000000000002,-0.26656150817871094,,0.33750000000000002,-0.39888066053390503,
0.34000000000000002,-0.25757035613059998,,0.34000000000000002,-0.39337536692619324,
0.34250000000000003,-0.25278627872467041,,0.34250000000000003,-0.39010584354400635,
0.34499999999999997,-0.24812242388725281,,0.34499999999999997,-0.38659593462944031,
0.34749999999999998,-0.2438431978225708,,0.34749999999999998,-0.38291773200035095,
0.34999999999999998,-0.23728013038635254,,0.34999999999999998,-0.37520071864128113,
0.35249999999999998,-0.23516456782817841,,0.35249999999999998,-0.37118595838546753,
0.35499999999999998,-0.2337702214717865,,0.35499999999999998,-0.36707502603530884,
0.35749999999999998,-0.23300091922283173,,0.35749999999999998,-0.36286792159080505,
0.35999999999999999,-0.23247203230857849,,0.35999999999999999,-0.35428544878959656,
0.36249999999999999,-0.23232778906822205,,0.36249999999999999,-0.35007834434509277,
0.36499999999999999,-0.23201525211334229,,0.36499999999999999,-0.34601551294326782,
0.36749999999999999,-0.23141424357891083,,0.36749999999999999,-0.3422170877456665,
0.37,-0.22905826568603516,,0.37,-0.33558189868927002,
0.3725,-0.22727927565574646,,0.3725,-0.33264896273612976,
0.375,-0.22511562705039978,,0.375,-0.32981216907501221,
0.3775,-0.22261540591716766,,0.3775,-0.32687923312187195,
0.38,-0.21665334701538086,,0.38,-0.31981131434440613,
0.38250000000000001,-0.21321555972099304,,0.38250000000000001,-0.3152676522731781,
0.38500000000000001,-0.20946523547172546,,0.38500000000000001,-0.30995470285415649,
0.38750000000000001,-0.20545046031475067,,0.38750000000000001,-0.3038003146648407,
0.39000000000000001,-0.19655546545982361,,0.39000000000000001,-0.28949618339538574,
0.39250000000000002,-0.19177138805389404,,0.39250000000000002,-0.28173109889030457,
0.39500000000000002,-0.18684308230876923,,0.39500000000000002,-0.27384579181671143,
0.39750000000000002,-0.18184265494346619,,0.39750000000000002,-0.26608070731163025,
0.40000000000000002,-0.17203411459922791,,0.40000000000000002,-0.25146406888961792,
0.40250000000000002,-0.16739428043365479,,0.40250000000000002,-0.24475674331188202,
0.40500000000000003,-0.16292273998260498,,0.40500000000000003,-0.23838600516319275,
0.40749999999999997,-0.15861949324607849,,0.40749999999999997,-0.23230373859405518,
0.40999999999999998,-0.15006105601787567,,0.40999999999999998,-0.22049984335899353,
0.41249999999999998,-0.1454693078994751,,0.41249999999999998,-0.21458587050437927,
0.41499999999999998,-0.14039675891399384,,0.41499999999999998,-0.20852765440940857,
0.41749999999999998,-0.13467511534690857,,0.41749999999999998,-0.20230114459991455,
0.41999999999999998,-0.12099604308605194,,0.41999999999999998,-0.18941542506217957,
0.42249999999999999,-0.11315882205963135,,0.42249999999999999,-0.18282830715179443,
0.42499999999999999,-0.10493695735931396,,0.42499999999999999,-0.1762412041425705,
0.42749999999999999,-0.096642971038818359,,0.42749999999999999,-0.169798344373703,
0.42999999999999999,-0.081569552421569824,,0.42999999999999999,-0.15780210494995117,
0.4325,-0.075535379350185394,,0.4325,-0.15256127715110779,
0.435,-0.070895552635192871,,0.435,-0.14811377227306366,
0.4375,-0.067794322967529297,,0.4375,-0.1446278989315033,
0.44,-0.065895125269889832,,0.44,-0.14116606116294861,
0.4425,-0.066640377044677734,,0.4425,-0.14138242602348328,
0.44500000000000001,-0.068082809448242188,,0.44500000000000001,-0.1429450511932373,
0.44750000000000001,-0.069885849952697754,,0.44750000000000001,-0.14575779438018799,
0.45000000000000001,-0.073564052581787109,,0.45000000000000001,-0.15453259646892548,
0.45250000000000001,-0.075246892869472504,,0.45250000000000001,-0.16013404726982117,
0.45500000000000002,-0.076857611536979675,,0.45500000000000002,-0.16631245613098145,
0.45750000000000002,-0.078636609017848969,,0.45750000000000002,-0.1729716956615448,
0.46000000000000002,-0.080848336219787598,,0.46000000000000002,-0.18754026293754578,
0.46250000000000002,-0.087772011756896973,,0.46250000000000002,-0.19564191997051239,
0.46500000000000002,-0.092964768409729004,,0.46500000000000002,-0.20441672205924988,
0.46750000000000003,-0.099479757249355316,,0.46750000000000003,-0.21403293311595917,
0.46999999999999997,-0.11647641658782959,,0.46999999999999997,-0.23605406284332275,
0.47249999999999998,-0.12664556503295898,,0.47249999999999998,-0.24831473827362061,
0.47499999999999998,-0.13760805130004883,,0.47499999999999998,-0.26115238666534424,
0.47749999999999998,-0.14907538890838623,,0.47749999999999998,-0.27423045039176941,
0.47999999999999998,-0.17234663665294647,,0.47999999999999998,-0.29947301745414734,
0.48249999999999998,-0.18369376659393311,,0.48249999999999998,-0.31084418296813965,
0.48499999999999999,-0.19463221728801727,,0.48499999999999999,-0.32096526026725769,
0.48749999999999999,-0.20504176616668701,,0.48749999999999999,-0.32969197630882263,
0.48999999999999999,-0.22420208156108856,,0.48999999999999999,-0.34279406070709229,
0.49249999999999999,-0.2329287976026535,,0.49249999999999999,-0.34748196601867676,
0.495,-0.24110257625579834,,0.495,-0.35120826959609985,
0.4975,-0.24867534637451172,,0.4975,-0.35423737764358521,
0.5,-0.26187360286712646,,0.5,-0.35911759734153748,
0.50249999999999995,-0.2673308253288269,,0.50249999999999995,-0.36120912432670593,
0.505,-0.27189850807189941,,0.505,-0.36315640807151794,
0.50749999999999995,-0.27550458908081055,,0.50749999999999995,-0.36493539810180664,
0.51000000000000001,-0.27990400791168213,,0.51000000000000001,-0.36762794852256775,
0.51249999999999996,-0.28088968992233276,,0.51249999999999996,-0.36844533681869507,
0.51500000000000001,-0.2813224196434021,,0.51500000000000001,-0.36890208721160889,
0.51749999999999996,-0.28146666288375854,,0.51749999999999996,-0.36899825930595398,
0.52000000000000002,-0.28204363584518433,,0.52000000000000002,-0.36844533681869507,
0.52249999999999996,-0.2830052375793457,,0.52249999999999996,-0.36794048547744751,
0.52500000000000002,-0.28464001417160034,,0.52500000000000002,-0.36738753318786621,
0.52749999999999997,-0.28702002763748169,,0.52749999999999997,-0.3668346107006073,
0.53000000000000003,-0.29002508521080017,,0.53000000000000003,-0.36572873592376709,
0.53249999999999997,-0.29711705446243286,,0.53249999999999997,-0.36507964134216309,
0.53500000000000003,-0.30065101385116577,,0.53500000000000003,-0.36431035399436951,
0.53749999999999998,-0.30375224351882935,,0.53749999999999998,-0.36339682340621948,
0.54000000000000004,-0.3078150749206543,,0.54000000000000004,-0.36111295223236084,
0.54249999999999998,-0.30860841274261475,,0.54249999999999998,-0.35979074239730835,
0.54500000000000004,-0.30860841274261475,,0.54500000000000004,-0.35849255323410034,
0.54749999999999999,-0.30800741910934448,,0.54749999999999999,-0.35729050636291504,
0.55000000000000004,-0.30581972002983093,,0.55000000000000004,-0.3555595874786377,
0.55249999999999999,-0.30461770296096802,,0.55249999999999999,-0.35515090823173523,
0.55500000000000005,-0.30348777770996094,,0.55500000000000005,-0.35505473613739014,
0.5575,-0.30245405435562134,,0.5575,-0.35519897937774658,
0.56000000000000005,-0.30031442642211914,,0.56000000000000005,-0.3558240532875061,
0.5625,-0.29889604449272156,,0.5625,-0.3560163676738739,
0.56499999999999995,-0.29702088236808777,,0.56499999999999995,-0.35592019557952881,
0.5675,-0.29464086890220642,,0.5675,-0.35543939471244812,
0.56999999999999995,-0.28853458166122437,,0.56999999999999995,-0.35317957401275635,
0.57250000000000001,-0.2851448655128479,,0.57250000000000001,-0.35142463445663452,
0.57499999999999996,-0.28189939260482788,,0.57499999999999996,-0.34938117861747742,
0.57750000000000001,-0.27913472056388855,,0.57750000000000001,-0.34716945886611938,
0.57999999999999996,-0.27596136927604675,,0.57999999999999996,-0.34291428327560425,
0.58250000000000002,-0.27584117650985718,,0.58250000000000002,-0.34113526344299316,
0.58499999999999996,-0.27665853500366211,,0.58499999999999996,-0.33969283103942871,
0.58750000000000002,-0.27822118997573853,,0.58750000000000002,-0.33861100673675537,
0.58999999999999997,-0.2823561429977417,,0.58999999999999997,-0.33743304014205933,
0.59250000000000003,-0.28427940607070923,,0.59250000000000003,-0.33714455366134644,
0.59499999999999997,-0.28569778800010681,,0.59499999999999997,-0.3369041383266449,
0.59750000000000003,-0.28644305467605591,,0.59750000000000003,-0.33666372299194336,
0.59999999999999998,-0.28591415286064148,,0.59999999999999998,-0.33579826354980469,
0.60250000000000004,-0.28485637903213501,,0.60250000000000004,-0.33517321944236755,
0.60499999999999998,-0.28360626101493835,,0.60499999999999998,-0.3343798816204071,
0.60750000000000004,-0.2823561429977417,,0.60750000000000004,-0.33351442217826843,
0.60999999999999999,-0.28074544668197632,,0.60999999999999999,-0.33163926005363464,
0.61250000000000004,-0.28052908182144165,,0.61250000000000004,-0.33070167899131775,
0.61499999999999999,-0.2806733250617981,,0.61499999999999999,-0.32981216907501221,
0.61750000000000005,-0.28100988268852234,,0.61750000000000005,-0.32889863848686218,
0.62,-0.28158685564994812,,0.62,-0.3269273042678833,
0.62250000000000005,-0.28144261240959167,,0.62250000000000005,-0.32579740881919861,
0.625,-0.28086563944816589,,0.625,-0.3244992196559906,
0.62749999999999995,-0.27978381514549255,,0.62749999999999995,-0.32300871610641479,
0.63,-0.2765623927116394,,0.63,-0.31949877738952637,
0.63249999999999995,-0.27466318011283875,,0.63249999999999995,-0.31752747297286987,
0.63500000000000001,-0.27281206846237183,,0.63500000000000001,-0.31550806760787964,
0.63749999999999996,-0.27115327119827271,,0.63749999999999996,-0.31346461176872253,
0.64000000000000001,-0.26882132887840271,,0.64000000000000001,-0.30969023704528809,
0.64249999999999996,-0.26819628477096558,,0.64249999999999996,-0.30800741910934448,
0.64500000000000002,-0.26790779829025269,,0.64500000000000002,-0.30649286508560181,
0.64749999999999996,-0.26790779829025269,,0.64749999999999996,-0.30517062544822693,
0.65000000000000002,-0.26834052801132202,,0.65000000000000002,-0.30291080474853516,
0.65249999999999997,-0.26865303516387939,,0.65249999999999997,-0.30187708139419556,
0.65500000000000003,-0.2689175009727478,,0.65500000000000003,-0.30086737871170044,
0.65749999999999997,-0.26906174421310425,,0.65749999999999997,-0.29983362555503845,
0.66000000000000003,-0.26870113611221313,,0.66000000000000003,-0.29757380485534668,
0.66249999999999998,-0.26810011267662048,,0.66249999999999998,-0.29634773731231689,
0.66500000000000004,-0.26711446046829224,,0.66500000000000004,-0.29507359862327576,
0.66749999999999998,-0.26576817035675049,,0.66749999999999998,-0.2937273383140564,
0.67000000000000004,-0.26199382543563843,,0.67000000000000004,-0.2909386157989502,
0.67249999999999999,-0.25970995426177979,,0.67249999999999999,-0.28949618339538574,
0.67500000000000004,-0.25732994079589844,,0.67500000000000004,-0.28802973031997681,
0.67749999999999999,-0.25499802827835083,,0.67749999999999999,-0.28653919696807861,
0.68000000000000005,-0.25112748146057129,,0.68000000000000005,-0.28360626101493835,
0.6825,-0.2498052567243576,,0.6825,-0.28221189975738525,
0.68500000000000005,-0.24898788332939148,,0.68500000000000005,-0.28096181154251099,
0.6875,-0.24867534637451172,,0.6875,-0.27983188629150391,
0.68999999999999995,-0.24908404052257538,,0.68999999999999995,-0.2781490683555603,
0.6925,-0.24951677024364471,,0.6925,-0.277596116065979,
0.69499999999999995,-0.24987737834453583,,0.69499999999999995,-0.27718743681907654,
0.69750000000000001,-0.2499975860118866,,0.69750000000000001,-0.27689895033836365,
0.69999999999999996,-0.24970909953117371,,0.69999999999999996,-0.27639409899711609,
0.70250000000000001,-0.24761757254600525,,0.70250000000000001,-0.27605754137039185,
0.70499999999999996,-0.24576644599437714,,0.70499999999999996,-0.27560076117515564,
0.70750000000000002,-0.24343451857566833,,0.70750000000000002,-0.27499973773956299,
0.70999999999999996,-0.23785710334777832,,0.70999999999999996,-0.27336499094963074,
0.71250000000000002,-0.23487608134746552,,0.71250000000000002,-0.27235528826713562,
0.71499999999999997,-0.23199121654033661,,0.71499999999999997,-0.27127346396446228,
0.71750000000000003,-0.22937080264091492,,0.71750000000000003,-0.27019163966178894,
0.71999999999999997,-0.22557239234447479,,0.71999999999999997,-0.26810011267662048,
0.72250000000000003,-0.22456268966197968,,0.72250000000000003,-0.26721060276031494,
0.72499999999999998,-0.22425016760826111,,0.72499999999999998,-0.26648938655853271,
0.72750000000000004,-0.22451460361480713,,0.72750000000000004,-0.26598453521728516,
0.72999999999999998,-0.22626957297325134,,0.72999999999999998,-0.26567202806472778,
0.73250000000000004,-0.22723118960857391,,0.73250000000000004,-0.26588839292526245,
0.73499999999999999,-0.22785624861717224,,0.73499999999999999,-0.26632112264633179,
0.73750000000000004,-0.22776007652282715,,0.73750000000000004,-0.26692211627960205,
0.73999999999999999,-0.22415399551391602,,0.73999999999999999,-0.26812416315078735,
0.74250000000000005,-0.22025942802429199,,0.74250000000000005,-0.26843667030334473,
0.745,-0.21494647860527039,,0.745,-0.26841264963150024,
0.74750000000000005,-0.2084074467420578,,0.74750000000000005,-0.26785969734191895,
0.75,-0.19314169883728027,,0.75,-0.26495081186294556,
0.75249999999999995,-0.18554489314556122,,0.75249999999999995,-0.26261886954307556,
0.755,-0.17876546084880829,,0.755,-0.25983017683029175,
0.75749999999999995,-0.17342846095561981,,0.75749999999999995,-0.25675296783447266,
0.76000000000000001,-0.16883671283721924,,0.76000000000000001,-0.2506466805934906,
0.76249999999999996,-0.17008683085441589,,0.76249999999999996,-0.24807433784008026,
0.76500000000000001,-0.17364482581615448,,0.76500000000000001,-0.24605493247509003,
0.76749999999999996,-0.1792222261428833,,0.76749999999999996,-0.2446846216917038,
0.77000000000000002,-0.19448797404766083,,0.77000000000000002,-0.24396340548992157,
0.77249999999999996,-0.20292620360851288,,0.77249999999999996,-0.24442017078399658,
0.77500000000000002,-0.21109998226165771,,0.77500000000000002,-0.24518947303295135,
0.77749999999999997,-0.21845638751983643,,0.77749999999999997,-0.24612705409526825,
0.78000000000000003,-0.22944292426109314,,0.78000000000000003,-0.2476656436920166,
0.78249999999999997,-0.2328326404094696,,0.78249999999999997,-0.24805030226707458,
0.78500000000000003,-0.23494820296764374,,0.78500000000000003,-0.24809837341308594,
0.78749999999999998,-0.2361021488904953,,0.78749999999999998,-0.24780988693237305,
0.79000000000000004,-0.23687145113945007,,0.79000000000000004,-0.24639150500297546,
0.79249999999999998,-0.23713588714599609,,0.79249999999999998,-0.2454298734664917,
0.79500000000000004,-0.23756861686706543,,0.79500000000000004,-0.24442017078399658,
0.79749999999999999,-0.23821771144866943,,0.79749999999999999,-0.24338643252849579,
0.80000000000000004,-0.23939570784568787,,0.80000000000000004,-0.24148723483085632,
0.80249999999999999,-0.23932358622550964,,0.80249999999999999,-0.2405736893415451,
0.80500000000000005,-0.23836195468902588,,0.80500000000000005,-0.23966014385223389,
0.8075,-0.23631851375102997,,0.8075,-0.23865044116973877,
0.81000000000000005,-0.22888998687267303,,0.81000000000000005,-0.23605406284332275,
0.8125,-0.22422611713409424,,0.8125,-0.23427507281303406,
0.81499999999999995,-0.21980266273021698,,0.81499999999999995,-0.23208737373352051,
0.8175,-0.21655718982219696,,0.8175,-0.22944292426109314,
0.81999999999999995,-0.2177351713180542,,0.81999999999999995,-0.22275964915752411,
0.82250000000000001,-0.22391359508037567,,0.82250000000000001,-0.21886508166790009,
0.82499999999999996,-0.23453950881958008,,0.82499999999999996,-0.21480223536491394,
0.82750000000000001,-0.24954080581665039,,0.82750000000000001,-0.2107393741607666,
0.82999999999999996,-0.28978466987609863,,0.82999999999999996,-0.20362338423728943,
0.83250000000000002,-0.31214237213134766,,0.83250000000000002,-0.20105104148387909,
0.83499999999999996,-0.33320188522338867,,0.83499999999999996,-0.19939224421977997,
0.83750000000000002,-0.3504149317741394,,0.83750000000000002,-0.19876718521118164,
0.83999999999999997,-0.36231499910354614,,0.83999999999999997,-0.20052215456962585,
0.84250000000000003,-0.35171312093734741,,0.84250000000000003,-0.20261368155479431,
0.84499999999999997,-0.32714366912841797,,0.84499999999999997,-0.20516197383403778,
0.84750000000000003,-0.28709214925765991,,0.84750000000000003,-0.20783047378063202,
0.84999999999999998,-0.1592685878276825,,0.84999999999999998,-0.21206161379814148,
0.85250000000000004,-0.073540017008781433,,0.85250000000000004,-0.21299919486045837,
0.85499999999999998,0.023319324478507042,,0.85499999999999998,-0.21285495162010193,
0.85750000000000004,0.12717446684837341,,0.85750000000000004,-0.21155676245689392,
0.85999999999999999,0.33428370952606201,,0.85999999999999999,-0.20547449588775635,
0.86250000000000004,0.42503675818443298,,0.86250000000000004,-0.20097891986370087,
0.86499999999999999,0.49874505400657654,,0.86499999999999999,-0.19571404159069061,
0.86750000000000005,0.54975908994674683,,0.86750000000000005,-0.18992027640342712,
0.87,0.56778949499130249,,0.87,-0.17756342887878418,
0.87250000000000005,0.53172868490219116,,0.87250000000000005,-0.17143309116363525,
0.875,0.46730002760887146,,0.875,-0.16561529040336609,
0.87749999999999995,0.37861448526382446,,0.87749999999999995,-0.16030232608318329,
0.88,0.15373925864696503,,0.88,-0.15208046138286591,
0.88249999999999995,0.032935541123151779,,0.88249999999999995,-0.14958024024963379,
0.88500000000000001,-0.082939863204956055,,0.88500000000000001,-0.148354172706604,
0.88749999999999996,-0.18696328997612,,0.88749999999999996,-0.14852246642112732,
0.89000000000000001,-0.33976495265960693,,0.89000000000000001,-0.15294592082500458,
0.89249999999999996,-0.38380724191665649,,0.89249999999999996,-0.15691260993480682,
0.89500000000000002,-0.40664574503898621,,0.89500000000000002,-0.1616966724395752,
0.89749999999999996,-0.41078072786331177,,0.89749999999999996,-0.16698560118675232,
0.90000000000000002,-0.37873467803001404,,0.90000000000000002,-0.17768363654613495,
0.90249999999999997,-0.35149675607681274,,0.90249999999999997,-0.18251578509807587,
0.90500000000000003,-0.3224557638168335,,0.90500000000000003,-0.18679499626159668,
0.90749999999999997,-0.29485723376274109,,0.90749999999999997,-0.19044916331768036,
0.91000000000000003,-0.25211316347122192,,0.91000000000000003,-0.19624292850494385,
0.91249999999999998,-0.23848216235637665,,0.91249999999999998,-0.19869506359100342,
0.91500000000000004,-0.22965928912162781,,0.91500000000000004,-0.20107507705688477,
0.91749999999999998,-0.22465884685516357,,0.91749999999999998,-0.20350317656993866,
0.92000000000000004,-0.22148549556732178,,0.92000000000000004,-0.20833532512187958,
0.92249999999999999,-0.22114893794059753,,0.92249999999999999,-0.21045088768005371,
0.92500000000000004,-0.22054791450500488,,0.92500000000000004,-0.21196544170379639,
0.92749999999999999,-0.2192256897687912,,0.92749999999999999,-0.21256646513938904,
0.93000000000000005,-0.21367232501506805,,0.93000000000000005,-0.20994603633880615,
0.9325,-0.20946523547172546,,0.9325,-0.20650824904441833,
0.93500000000000005,-0.20451287925243378,,0.93500000000000005,-0.20189246535301208,
0.9375,-0.19895951449871063,,0.9375,-0.19653141498565674,
0.93999999999999995,-0.18681904673576355,,0.93999999999999995,-0.18674692511558533,
0.9425,-0.18064062297344208,,0.9425,-0.18427073955535889,
0.94499999999999995,-0.1746545284986496,,0.94499999999999995,-0.18477559089660645,
0.94750000000000001,-0.16907712817192078,,0.94750000000000001,-0.18917500972747803,
0.94999999999999996,-0.15998980402946472,,0.94999999999999996,-0.21182119846343994,
0.95250000000000001,-0.15679240226745605,,0.95250000000000001,-0.23009201884269714,
0.95499999999999996,-0.15455663204193115,,0.95499999999999996,-0.25211316347122192,
0.95750000000000002,-0.15325844287872314,,0.95750000000000002,-0.27653834223747253,
0.95999999999999996,-0.1529218852519989,,0.95999999999999996,-0.32452327013015747,
0.96250000000000002,-0.15340268611907959,,0.96250000000000002,-0.34301042556762695,
0.96499999999999997,-0.15400370955467224,,0.96499999999999997,-0.35402101278305054,
0.96750000000000003,-0.15443643927574158,,0.96750000000000003,-0.35469412803649902,
0.96999999999999997,-0.15407583117485046,,0.96999999999999997,-0.31466662883758545,
0.97250000000000003,-0.1530180424451828,,0.97250000000000003,-0.27011951804161072,
0.97499999999999998,-0.15128712356090546,,0.97499999999999998,-0.20799875259399414,
0.97750000000000004,-0.14888307452201843,,0.97750000000000004,-0.12871305644512177,
0.97999999999999998,-0.14232000708580017,,0.97999999999999998,0.073251530528068542,
0.98250000000000004,-0.1382811963558197,,0.98250000000000004,0.18854996562004089,
0.98499999999999999,-0.1339058130979538,,0.98499999999999999,0.30639669299125671,
0.98750000000000004,-0.12933811545372009,,0.98750000000000004,0.42030078172683716,
0.98999999999999999,-0.12017866224050522,,0.98999999999999999,0.60858631134033203,
0.99250000000000005,-0.11597156524658203,,0.99250000000000005,0.66986560821533203,
0.995,-0.11224528402090073,,0.995,0.70227229595184326,
0.99750000000000005,-0.1090959757566452,,0.99750000000000005,0.70272904634475708,
1,-0.10484080016613007,0,1,0.60716789960861206,59.999996185302734
1.0024999999999999,-0.10363876819610596,,1.0024999999999999,0.51684761047363281,
1.0049999999999999,-0.10286947339773178,,1.0049999999999999,0.40568411350250244,
1.0075000000000001,-0.10224442183971405,,1.0075000000000001,0.28125029802322388,
1.01,-0.1015472412109375,,1.01,0.026011865586042404,
1.0125,-0.098734498023986816,,1.0125,-0.089094243943691254,
1.0149999999999999,-0.096234284341335297,,1.0149999999999999,-0.18749217689037323,
1.0175000000000001,-0.092868611216545105,,1.0175000000000001,-0.2652873694896698,
1.02,-0.083661079406738281,,1.02,-0.35447776317596436,
1.0225,-0.078155800700187683,,1.0225,-0.36858958005905151,
1.0249999999999999,-0.072313949465751648,,1.0249999999999999,-0.36666631698608398,
1.0275000000000001,-0.066351890563964844,,1.0275000000000001,-0.3530353307723999,
1.03,-0.054860513657331467,,1.03,-0.30805549025535583,
1.0325,-0.049475431442260742,,1.0325,-0.28403899073600769,
1.0349999999999999,-0.044330757111310959,,1.0349999999999999,-0.26235443353652954,
1.0375000000000001,-0.03937840461730957,,1.0375000000000001,-0.24432401359081268,
1.04,-0.029449662193655968,,1.04,-0.2199709415435791,
1.0425,-0.024232864379882812,,1.0425,-0.21256646513938904,
1.0449999999999999,-0.018751621246337891,,1.0449999999999999,-0.20710925757884979,
1.0475000000000001,-0.012957851402461529,,1.0475000000000001,-0.20270983874797821,
1.05,-0.00052889192011207342,,1.05,-0.19446393847465515,
1.0525,0.0059620542451739311,,1.0525,-0.18996834754943848,
1.0549999999999999,0.012501081451773643,,1.0549999999999999,-0.18520832061767578,
1.0575000000000001,0.019016068428754807,,1.0575000000000001,-0.18032810091972351,
1.0600000000000001,0.031613312661647797,,1.0600000000000001,-0.17126481235027313,
1.0625,0.037551324814558029,,1.0625,-0.16749045252799988,
1.0649999999999999,0.043176811188459396,,1.0649999999999999,-0.16441325843334198,
1.0674999999999999,0.048417650163173676,,1.0674999999999999,-0.16200920939445496,
1.0700000000000001,0.05755305290222168,,1.0700000000000001,-0.15893201529979706,
1.0725,0.061327420175075531,,1.0725,-0.15794634819030762,
1.075,0.064524814486503601,,1.075,-0.15708088874816895,
1.0774999999999999,0.067097149789333344,,1.0774999999999999,-0.15616735816001892,
1.0800000000000001,0.070342622697353363,,1.0800000000000001,-0.15354692935943604,
1.0825,0.071111917495727539,,1.0825,-0.15164773166179657,
1.085,0.07135232537984848,,1.085,-0.1492917537689209,
1.0874999999999999,0.071087881922721863,,1.0874999999999999,-0.14655113220214844,
1.0900000000000001,0.069092512130737305,,1.0900000000000001,-0.14032463729381561,
1.0925,0.067265436053276062,,1.0925,-0.13717532157897949,
1.095,0.064789257943630219,,1.095,-0.13421833515167236,
1.0974999999999999,0.061471663415431976,,1.0974999999999999,-0.13164600729942322,
1.1000000000000001,0.051735244691371918,,1.1000000000000001,-0.12791971862316132,
1.1025,0.045003890991210938,,1.1025,-0.12676577270030975,
1.105,0.036902230232954025,,1.105,-0.12592434883117676,
1.1074999999999999,0.027454297989606857,,1.1074999999999999,-0.12525121867656708,
1.1100000000000001,0.0049523515626788139,,1.1100000000000001,-0.12347221374511719,
1.1125,-0.0076448917388916016,,1.1125,-0.12198170274496078,
1.115,-0.020674865692853928,,1.115,-0.11996229737997055,
1.1174999999999999,-0.033801000565290451,,1.1174999999999999,-0.11734187602996826,
1.1200000000000001,-0.058731041848659515,,1.1200000000000001,-0.1106826514005661,
1.1225000000000001,-0.069909892976284027,,1.1225000000000001,-0.1069563627243042,
1.125,-0.079982876777648926,,1.125,-0.10315795987844467,
1.1274999999999999,-0.088877879083156586,,1.1274999999999999,-0.099503800272941589,
1.1299999999999999,-0.10344644635915756,,1.1299999999999999,-0.092892646789550781,
1.1325000000000001,-0.10950466245412827,,1.1325000000000001,-0.089959703385829926,
1.135,-0.11505802720785141,,1.135,-0.087122917175292969,
1.1375,-0.12037098407745361,,1.1375,-0.084262095391750336,
1.1399999999999999,-0.13104498386383057,,1.1399999999999999,-0.077867314219474792,
1.1425000000000001,-0.13657431304454803,,1.1425000000000001,-0.074068903923034668,
1.145,-0.1421997994184494,,1.145,-0.069813728332519531,
1.1475,-0.14780125021934509,,1.1475,-0.065125823020935059,
1.1499999999999999,-0.15799443423748016,,1.1499999999999999,-0.054812431335449219,
1.1525000000000001,-0.1621534526348114,,1.1525000000000001,-0.049427352845668793,
1.155,-0.1654229611158371,,1.155,-0.044066309928894043,
1.1575,-0.16763469576835632,,1.1575,-0.038825474679470062,
1.1599999999999999,-0.16900500655174255,,1.1599999999999999,-0.028824608772993088,
1.1625000000000001,-0.16833186149597168,,1.1625000000000001,-0.02399246022105217,
1.165,-0.16708175837993622,,1.165,-0.019160311669111252,
1.1675,-0.16549508273601532,,1.1675,-0.009135405533015728,
1.1699999999999999,-0.16251406073570251,,1.1699999999999999,-0.0037503242492675781,
1.1725000000000001,-0.16164860129356384,,1.1725000000000001,0.0019472837448120117,
1.175,-0.1614081859588623,,1.175,0.0079814596101641655,
1.1775,-0.16184091567993164,,1.1775,0.01430412195622921,
1.1799999999999999,-0.1644853800535202,,1.1799999999999999,0.027670662850141525,
1.1825000000000001,-0.16636054217815399,,1.1825000000000001,0.034570299088954926,
1.1850000000000001,-0.16828379034996033,,1.1850000000000001,0.04154205322265625,
1.1875,-0.1699906587600708,,1.1875,0.048585932701826096,
1.1899999999999999,-0.17203411459922791,,1.1899999999999999,0.062649652361869812,
1.1924999999999999,-0.1721302717924118,,1.1924999999999999,0.06964544951915741,
1.1950000000000001,-0.17160138487815857,,1.1950000000000001,0.076545082032680511,
1.1975,-0.17054359614849091,,1.1975,0.083252392709255219,
1.2,-0.16763469576835632,,1.2,0.095801554620265961,
1.2024999999999999,-0.16612014174461365,,1.2024999999999999,0.10135491937398911,
1.2050000000000001,-0.16482195258140564,,1.2050000000000001,0.10633131116628647,
1.2075,-0.16378819942474365,,1.2075,0.11058648675680161,
1.21,-0.16249001026153564,,1.21,0.11681298911571503,
1.2124999999999999,-0.16203324496746063,,1.2124999999999999,0.11873622983694077,
1.2150000000000001,-0.1615043580532074,,1.2150000000000001,0.1199142187833786,
1.2175,-0.1607590913772583,,1.2175,0.1200103759765625,
1.22,-0.15830695629119873,,1.22,0.11888047307729721,
1.2224999999999999,-0.15660008788108826,,1.2224999999999999,0.11690914630889893,
1.2250000000000001,-0.1547008752822876,,1.2250000000000001,0.11397620290517807,
1.2275,-0.15277764201164246,,1.2275,0.10464847087860107,
1.23,-0.14950811862945557,,1.23,0.09801328182220459,
1.2324999999999999,-0.14847438037395477,,1.2324999999999999,0.089983746409416199,
1.2350000000000001,-0.14794549345970154,,1.2350000000000001,0.080487728118896484,
1.2375,-0.14787337183952332,,1.2375,0.057577095925807953,
1.24,-0.14866670966148376,,1.24,0.044499039649963379,
1.2424999999999999,-0.14921963214874268,,1.2424999999999999,0.030723810195922852,
1.2450000000000001,-0.14967641234397888,,1.2450000000000001,0.016491811722517014,
1.2475000000000001,-0.14991681277751923,,1.2475000000000001,-0.012068351730704308,
1.25,-0.14960429072380066,,1.25,-0.025915702804923058,
1.2524999999999999,-0.14912347495555878,,1.2524999999999999,-0.03921012207865715,
1.2549999999999999,-0.14859458804130554,,1.2549999999999999,-0.05185544490814209,
1.2575000000000001,-0.14808973670005798,,1.2575000000000001,-0.063779555261135101,
1.26,-0.14756083488464355,,1.26,-0.085295841097831726,
1.2625,-0.14758488535881042,,1.2625,-0.094888016581535339,
1.2649999999999999,-0.14775316417217255,,1.2649999999999999,-0.10371088981628418,
1.2675000000000001,-0.14794549345970154,,1.2675000000000001,-0.11174043267965317,
1.27,-0.14780125021934509,,1.27,-0.12549161911010742,
1.2725,-0.14720022678375244,,1.2725,-0.13130943477153778,
1.2749999999999999,-0.14614245295524597,,1.2749999999999999,-0.13650219142436981,
1.2775000000000001,-0.14465193450450897,,1.2775000000000001,-0.14551739394664764,
1.28,-0.1406131237745285,,1.28,-0.14958024024963379,
1.2825,-0.13840138912200928,,1.2825,-0.15349885821342468,
1.2849999999999999,-0.13633391261100769,,1.2849999999999999,-0.15736937522888184,
1.2875000000000001,-0.1345549076795578,,1.2875000000000001,-0.16501426696777344,
1.29,-0.13246338069438934,,1.29,-0.16862034797668457,
1.2925,-0.132222980260849,,1.2925,-0.17193794250488281,
1.2949999999999999,-0.13248741626739502,,1.2949999999999999,-0.1747506856918335,
1.2975000000000001,-0.13308843970298767,,1.2975000000000001,-0.17826060950756073,
1.3,-0.13457894325256348,,1.3,-0.17874142527580261,
1.3025,-0.13508379459381104,,1.3025,-0.17835676670074463,
1.3049999999999999,-0.13522803783416748,,1.3049999999999999,-0.17715474963188171,
1.3075000000000001,-0.13489148020744324,,1.3075000000000001,-0.1753036230802536,
1.3100000000000001,-0.13270378112792969,,1.3100000000000001,-0.17051956057548523,
1.3125,-0.13092479109764099,,1.3125,-0.16806742548942566,
1.3149999999999999,-0.12888133525848389,,1.3149999999999999,-0.16592781245708466,
1.3174999999999999,-0.12674173712730408,,1.3174999999999999,-0.16330739855766296,
1.3200000000000001,-0.12279908359050751,,1.3200000000000001,-0.16306698322296143,
1.3225,-0.12133260816335678,,1.3225,-0.16357183456420898,
1.325,-0.12037098407745361,,1.325,-0.16474983096122742,
1.3274999999999999,-0.11998634040355682,,1.3274999999999999,-0.16862034797668457,
1.3300000000000001,-0.12082775682210922,,1.3300000000000001,-0.1709282398223877,
1.3325,-0.12188553810119629,,1.3325,-0.1731640100479126,
1.335,-0.12315969169139862,,1.335,-0.17513534426689148,
1.3374999999999999,-0.12443383783102036,,1.3374999999999999,-0.17758747935295105,
1.3400000000000001,-0.12621283531188965,,1.3400000000000001,-0.17785191535949707,
1.3425,-0.12633304297924042,,1.3425,-0.1774432361125946,
1.345,-0.12580415606498718,,1.345,-0.17645756900310516,
1.3474999999999999,-0.12460212409496307,,1.3474999999999999,-0.17328421771526337,
1.3500000000000001,-0.12037098407745361,,1.3500000000000001,-0.17145714163780212,
1.3525,-0.11765440553426743,,1.3525,-0.16972622275352478,
1.355,-0.11474549770355225,,1.355,-0.1682116687297821,
1.3574999999999999,-0.11190871894359589,,1.3574999999999999,-0.16624033451080322,
1.3600000000000001,-0.10698040574789047,,1.3600000000000001,-0.16578356921672821,
1.3625,-0.10512928664684296,,1.3625,-0.16559123992919922,
1.365,-0.1036868542432785,,1.365,-0.16554316878318787,
1.3674999999999999,-0.10265310853719711,,1.3674999999999999,-0.16537487506866455,
1.3700000000000001,-0.1014510840177536,,1.3700000000000001,-0.16499023139476776,
1.3725000000000001,-0.10116259753704071,,1.3725000000000001,-0.16434113681316376,
1.375,-0.10097026824951172,,1.375,-0.16340355575084686,
1.3774999999999999,-0.10087411105632782,,1.3774999999999999,-0.16087929904460907,
1.3799999999999999,-0.10101835429668427,,1.3799999999999999,-0.15955707430839539,
1.3825000000000001,-0.10130684077739716,,1.3825000000000001,-0.15835504233837128,
1.385,-0.10178764909505844,,1.385,-0.15739342570304871,
1.3875,-0.10241270065307617,,1.3875,-0.15647988021373749,
1.3899999999999999,-0.10363876819610596,,1.3899999999999999,-0.15657603740692139,
1.3925000000000001,-0.10392725467681885,,1.3925000000000001,-0.15691260993480682,
1.395,-0.10366281121969223,,1.395,-0.15739342570304871,
1.3975,-0.10262906551361084,,1.3975,-0.15821079909801483,
1.3999999999999999,-0.10065774619579315,,1.3999999999999999,-0.15825888514518738,
1.4025000000000001,-0.093469619750976562,,1.4025000000000001,-0.15794634819030762,
1.405,-0.088300906121730804,,1.405,-0.15724918246269226,
1.4075,-0.082338854670524597,,1.4075,-0.15486916899681091,
1.4099999999999999,-0.069380998611450195,,1.4099999999999999,-0.15342673659324646,
1.4125000000000001,-0.06320258229970932,,1.4125000000000001,-0.15198430418968201,
1.415,-0.057769417762756348,,1.415,-0.15073418617248535,
1.4175,-0.053490202873945236,,1.4175,-0.14921963214874268,
1.4199999999999999,-0.04935523122549057,,1.4199999999999999,-0.14912347495555878,
1.4225000000000001,-0.049715839326381683,,1.4225000000000001,-0.14948408305644989,
1.425,-0.051639080047607422,,1.425,-0.15020529925823212,
1.4275,-0.054932635277509689,,1.4275,-0.15244106948375702,
1.4299999999999999,-0.064548850059509277,,1.4299999999999999,-0.15369117259979248,
1.4325000000000001,-0.070246458053588867,,1.4325000000000001,-0.15486916899681091,
1.4350000000000001,-0.076136395335197449,,1.4350000000000001,-0.15585482120513916,
1.4375,-0.081954203546047211,,1.4375,-0.15681645274162292,
1.4399999999999999,-0.092628203332424164,,1.4399999999999999,-0.15667220950126648,
1.4424999999999999,-0.097292065620422363,,1.4424999999999999,-0.15602311491966248,
1.4450000000000001,-0.10142704099416733,,1.4450000000000001,-0.15486916899681091,
1.4475,-0.10508120059967041,,1.4475,-0.15114288032054901,
1.45,-0.11113941669464111,,1.45,-0.14871478080749512,
1.4524999999999999,-0.11361559480428696,,1.4524999999999999,-0.14607033133506775,
1.4550000000000001,-0.11573116481304169,,1.4550000000000001,-0.14337778091430664,
1.4575,-0.11746208369731903,,1.4575,-0.14075736701488495,
1.46,-0.11948148906230927,,1.46,-0.13652622699737549,
1.4624999999999999,-0.11950552463531494,,1.4624999999999999,-0.13515591621398926,
1.4650000000000001,-0.11873622983694077,,1.4650000000000001,-0.13438662886619568,
1.4675,-0.11707743257284164,,1.4675,-0.1345549076795578,
1.47,-0.11137982457876205,,1.47,-0.13532420992851257,
1.4724999999999999,-0.10782182216644287,,1.4724999999999999,-0.13633391261100769,
1.4750000000000001,-0.10438402742147446,,1.4750000000000001,-0.13741573691368103,
1.4775,-0.10171552747488022,,1.4775,-0.13907453417778015,
1.48,-0.10190784931182861,,1.48,-0.13933897018432617,
1.4824999999999999,-0.1063072681427002,,1.4824999999999999,-0.1391226053237915,
1.4850000000000001,-0.11445701122283936,,1.4850000000000001,-0.13835331797599792,
1.4875,-0.12659749388694763,,1.4875,-0.13532420992851257,
1.49,-0.16208133101463318,,1.49,-0.13320863246917725,
1.4924999999999999,-0.18366973102092743,,1.4924999999999999,-0.1308286190032959,
1.4950000000000001,-0.20578703284263611,,1.4950000000000001,-0.12830436229705811,
1.4975000000000001,-0.22626957297325134,,1.4975000000000001,-0.12330393493175507,
1.5,-0.2520410418510437,,1.5,-0.12099604308605194,
1.5024999999999999,-0.25170445442199707,,1.5024999999999999,-0.11892855167388916,
1.5049999999999999,-0.23898701369762421,,1.5049999999999999,-0.11710147559642792,
1.5075000000000001,-0.2116769552230835,,1.5075000000000001,-0.11419256776571274,
1.51,-0.10815839469432831,,1.51,-0.11306266486644745,
1.5125,-0.031997960060834885,,1.5125,-0.11207699775695801,
1.5149999999999999,0.058322351425886154,,1.5149999999999999,-0.11125962436199188,
1.5175000000000001,0.15950898826122284,,1.5175000000000001,-0.10984122753143311,
1.52,0.37491223216056824,,1.52,-0.10924021899700165,
1.5225,0.47689220309257507,,1.5225,-0.10866324603557587,
1.5249999999999999,0.56613069772720337,,1.5249999999999999,-0.10811030864715576,
1.5275000000000001,0.63613677024841309,,1.5275000000000001,-0.10693232715129852,
1.53,0.69753628969192505,,1.53,-0.10625918954610825,
1.5325,0.68279945850372314,,1.5325,-0.10544180870056152,
1.5349999999999999,0.63733875751495361,,1.5349999999999999,-0.10448019206523895,
1.5375000000000001,0.5637747049331665,,1.5375000000000001,-0.1021001785993576,
1.54,0.35363635420799255,,1.54,-0.10072986781597137,
1.5425,0.23151040077209473,,1.5425,-0.099287435412406921,
1.5449999999999999,0.10887961089611053,,1.5449999999999999,-0.097893081605434418,
1.5475000000000001,-0.0065149865113198757,,1.5475000000000001,-0.095537111163139343,
1.55,-0.19061744213104248,,1.55,-0.094719730317592621,
1.5525,-0.2515842616558075,,1.5525,-0.09414275735616684,
1.5549999999999999,-0.29024145007133484,,1.5549999999999999,-0.093854270875453949,
1.5575000000000001,-0.30795931816101074,,1.5575000000000001,-0.093830227851867676,
1.5600000000000001,-0.29365521669387817,,1.5600000000000001,-0.093926392495632172,
1.5625,-0.27028781175613403,,1.5625,-0.093974471092224121,
1.5649999999999999,-0.24213632941246033,,1.5649999999999999,-0.093854270875453949,
1.5674999999999999,-0.21311938762664795,,1.5674999999999999,-0.092892646789550781,
1.5700000000000001,-0.16354779899120331,,1.5700000000000001,-0.09197910875082016,
1.5725,-0.14585396647453308,,1.5725,-0.090801119804382324,
1.575,-0.13318459689617157,,1.575,-0.089382730424404144,
1.5774999999999999,-0.12486656755208969,,1.5774999999999999,-0.086257457733154297,
1.5800000000000001,-0.11700531095266342,,1.5800000000000001,-0.084742903709411621,
1.5825,-0.11515419185161591,,1.5825,-0.083372592926025391,
1.585,-0.11351943016052246,,1.585,-0.082242690026760101,
1.5874999999999999,-0.11150002479553223,,1.5874999999999999,-0.080896422266960144,
1.5900000000000001,-0.10563413798809052,,1.5900000000000001,-0.080704092979431152,
1.5925,-0.10195593535900116,,1.5925,-0.080776214599609375,
1.595,-0.097989246249198914,,1.595,-0.081064701080322266,
1.5974999999999999,-0.094022557139396667,,1.5974999999999999,-0.081425309181213379,
1.6000000000000001,-0.086594030261039734,,1.6000000000000001,-0.081858038902282715,
1.6025,-0.083252392709255219,,1.6025,-0.081689760088920593,
1.605,-0.080151163041591644,,1.605,-0.081112787127494812,
1.6074999999999999,-0.077218219637870789,,1.6074999999999999,-0.078516408801078796,
1.6100000000000001,-0.071736976504325867,,1.6100000000000001,-0.076448917388916016,
1.6125,-0.069140598177909851,,1.6125,-0.073972746729850769,
1.615,-0.066712498664855957,,1.615,-0.071160003542900085,
1.6174999999999999,-0.064452692866325378,,1.6174999999999999,-0.065053701400756836,
1.6200000000000001,-0.060558121651411057,,1.6200000000000001,-0.062024593353271484,
1.6225000000000001,-0.058971446007490158,,1.6225000000000001,-0.059259932488203049,
1.625,-0.057601135224103928,,1.625,-0.056831836700439453,
1.6274999999999999,-0.05642315000295639,,1.6274999999999999,-0.053490202873945236,
1.6299999999999999,-0.054403744637966156,,1.6299999999999999,-0.052672825753688812,
1.6325000000000001,-0.053490202873945236,,1.6325000000000001,-0.052456460893154144,
1.635,-0.052552621811628342,,1.635,-0.052793025970458984,
1.6375,-0.051542919129133224,,1.6375,-0.054860513657331467,
1.6399999999999999,-0.049283109605312347,,1.6399999999999999,-0.056351028382778168,
1.6425000000000001,-0.047960877418518066,,1.6425000000000001,-0.057937704026699066,
1.645,-0.046446323394775391,,1.645,-0.059428215026855469,
1.6475,-0.044715404510498047,,1.6475,-0.061327420175075531,
1.6499999999999999,-0.04046022891998291,,1.6499999999999999,-0.061303377151489258,
1.6525000000000001,-0.03783981129527092,,1.6525000000000001,-0.060437917709350586,
1.655,-0.034906864166259766,,1.655,-0.058538716286420822,
1.6575,-0.031637351959943771,,1.6575,-0.051542919129133224,
1.6599999999999999,-0.024208825081586838,,1.6599999999999999,-0.046470366418361664,
1.6625000000000001,-0.020170014351606369,,1.6625000000000001,-0.040556393563747406,
1.665,-0.016059082001447678,,1.665,-0.034065447747707367,
1.6675,-0.011996230110526085,,1.6675,-0.027261972427368164,
1.6699999999999999,-0.0043272972106933594,,1.6699999999999999,-0.014328162185847759,
1.6725000000000001,-0.0008895000210031867,,1.6725000000000001,-0.0089911622926592827,
1.675,0.0022357702255249023,,1.675,-0.0048802299425005913,
1.6775,0.0050725541077554226,,1.6775,-0.0014183919411152601,
1.6799999999999999,0.010217229835689068,,1.6799999999999999,-0.0023319325409829617,
1.6825000000000001,0.012789567932486534,,1.6825000000000001,-0.0049523515626788139,
1.6850000000000001,0.015602311119437218,,1.6850000000000001,-0.0091113653033971786,
1.6875,0.018775662407279015,,1.6875,-0.020843148231506348,
1.6899999999999999,0.026733081787824631,,1.6899999999999999,-0.027622580528259277,
1.6924999999999999,0.031565230339765549,,1.6924999999999999,-0.034450095146894455,
1.6950000000000001,0.03692626953125,,1.6950000000000001,-0.041013162583112717,
1.6975,0.042647920548915863,,1.6975,-0.052095852792263031,
1.7,0.054475866258144379,,1.7,-0.056326985359191895,
1.7024999999999999,0.060173474252223969,,1.7024999999999999,-0.059716701507568359,
1.7050000000000001,0.065486431121826172,,1.7050000000000001,-0.062361162155866623,
1.7075,0.07031857967376709,,1.7075,-0.066231690347194672,
1.71,0.078492365777492523,,1.71,-0.067890487611293793,
1.7124999999999999,0.08200228214263916,,1.7124999999999999,-0.069621406495571136,
1.7150000000000001,0.085295841097831726,,1.7150000000000001,-0.071448490023612976,
1.7175,0.088589392602443695,,1.7175,-0.07522284984588623,
1.72,0.095609232783317566,,1.72,-0.07671336829662323,
1.7224999999999999,0.099479757249355316,,1.7224999999999999,-0.077554784715175629,
1.7250000000000001,0.10359068959951401,,1.7250000000000001,-0.077458620071411133,
1.7275,0.10782182216644287,,1.7275,-0.073876582086086273,
1.73,0.11611580848693848,,1.73,-0.07060706615447998,
1.7324999999999999,0.11984209716320038,,1.7324999999999999,-0.066880784928798676,
1.7350000000000001,0.12313564866781235,,1.7350000000000001,-0.063491068780422211,
1.7375,0.12585222721099854,,1.7375,-0.06137549877166748,
1.74,0.12950639426708221,,1.74,-0.065149866044521332,
1.7424999999999999,0.13044397532939911,,1.7424999999999999,-0.072866879403591156,
1.7450000000000001,0.13078054785728455,,1.7450000000000001,-0.08519967645406723,
1.7475000000000001,0.13058821856975555,,1.7475000000000001,-0.12315969169139862,
1.75,0.12847265601158142,,1.75,-0.1469598263502121,
1.7524999999999999,0.12652537226676941,,1.7524999999999999,-0.17179369926452637,
1.7549999999999999,0.1239289864897728,,1.7549999999999999,-0.19532939791679382,
1.7575000000000001,0.1206594705581665,,1.7575000000000001,-0.22737543284893036,
1.76,0.11200487613677979,,1.76,-0.22997181117534637,
1.7625,0.10666787624359131,,1.7625,-0.21982669830322266,
1.7649999999999999,0.1007058247923851,,1.7649999999999999,-0.19453606009483337,
1.7675000000000001,0.094190835952758789,,1.7675000000000001,-0.15234491229057312,
1.77,0.079742476344108582,,1.77,-0.014784932136535645,
1.7725,0.071929298341274261,,1.7725,0.078997217118740082,
1.7749999999999999,0.063731476664543152,,1.7749999999999999,0.18616995215415955,
1.7775000000000001,0.055197082459926605,,1.7775000000000001,0.42292118072509766,
1.78,0.037046473473310471,,1.78,0.54064774513244629,
1.7825,0.027478337287902832,,1.7825,0.64868593215942383,
1.7849999999999999,0.017621716484427452,,1.7849999999999999,0.73987168073654175,
1.7875000000000001,0.0075727701187133789,,1.7875000000000001,0.8461308479309082,
1.79,-0.012549161911010742,,1.79,0.85202080011367798,
1.7925,-0.022309621796011925,,1.7925,0.82372510433197021,
1.7949999999999999,-0.031613312661647797,,1.7949999999999999,0.76234960556030273,
1.7975000000000001,-0.040340028703212738,,1.7975000000000001,0.55750012397766113,
1.8,-0.055581729859113693,,1.8,0.42777737975120544,
1.8025,-0.062048636376857758,,1.8025,0.29125115275382996,
1.8049999999999999,-0.067746244370937347,,1.8049999999999999,0.15686452388763428,
1.8075000000000001,-0.072794757783412933,,1.8075000000000001,-0.073996782302856445,
1.8100000000000001,-0.081281065940856934,,1.8100000000000001,-0.15902817249298096,
1.8125,-0.084935232996940613,,1.8125,-0.21989881992340088,
1.8149999999999999,-0.088276863098144531,,1.8149999999999999,-0.25668084621429443,
1.8174999999999999,-0.091354057192802429,,1.8174999999999999,-0.26831647753715515,
1.8200000000000001,-0.09659489244222641,,1.8200000000000001,-0.25175255537033081,
1.8225,-0.098686419427394867,,1.8225,-0.22691866755485535,
1.825,-0.10029713809490204,,1.825,-0.1986229419708252,
1.8274999999999999,-0.10142704099416733,,1.8274999999999999,-0.17080804705619812,
1.8300000000000001,-0.10207613557577133,,1.8300000000000001,-0.12683789432048798,
1.8325,-0.10166744887828827,,1.8325,-0.11279821395874023,
1.835,-0.10087411105632782,,1.835,-0.10375897586345673,
1.8374999999999999,-0.099840365350246429,,1.8374999999999999,-0.096162162721157074,
1.8400000000000001,-0.09767671674489975,,1.8400000000000001,-0.094912052154541016,
1.8425,-0.096907421946525574,,1.8425,-0.093758106231689453,
1.845,-0.096474692225456238,,1.845,-0.09197910875082016,
1.8474999999999999,-0.096474692225456238,,1.8474999999999999,-0.085343919694423676,
1.8500000000000001,-0.096883378922939301,,1.8500000000000001,-0.080728136003017426,
1.8525,-0.098662376403808594,,1.8525,-0.075775787234306335,
1.855,-0.099672079086303711,,1.855,-0.070871517062187195,
1.8574999999999999,-0.10051350295543671,,1.8574999999999999,-0.062481366097927094,
1.8600000000000001,-0.10092218965291977,,1.8600000000000001,-0.059332054108381271,
1.8625,-0.10027309507131577,,1.8625,-0.056855879724025726,
1.865,-0.098998948931694031,,1.865,-0.054932635277509689,
1.8674999999999999,-0.097268030047416687,,1.8674999999999999,-0.052095852792263031,
1.8700000000000001,-0.093157097697257996,,1.8700000000000001,-0.050869785249233246,
1.8725000000000001,-0.091305971145629883,,1.8725000000000001,-0.049643717706203461,
1.875,-0.089935660362243652,,1.875,-0.048393607139587402,
1.8774999999999999,-0.089214444160461426,,1.8774999999999999,-0.047119460999965668,
1.8799999999999999,-0.089935660362243652,,1.8799999999999999,-0.044619243592023849,
1.8825000000000001,-0.091281935572624207,,1.8825000000000001,-0.04336913675069809,
1.885,-0.092988811433315277,,1.885,-0.042119026184082031,
1.8875,-0.094815894961357117,,1.8875,-0.039234161376953125,
1.8899999999999999,-0.097724795341491699,,1.8899999999999999,-0.037503242492675781,
1.8925000000000001,-0.098325811326503754,,1.8925000000000001,-0.035483837127685547,
1.895,-0.098157525062561035,,1.895,-0.033175945281982422,
1.8975,-0.097123786807060242,,1.8975,-0.027790864929556847,
1.8999999999999999,-0.09272436797618866,,1.8999999999999999,-0.024857919663190842,
1.9025000000000001,-0.089623138308525085,,1.9025000000000001,-0.021876892074942589,
1.905,-0.086185336112976074,,1.905,-0.018967986106872559,
1.9075,-0.082651376724243164,,1.9075,-0.013486742973327637,
1.9099999999999999,-0.076232552528381348,,1.9099999999999999,-0.011010567657649517,
1.9125000000000001,-0.073756381869316101,,1.9125000000000001,-0.0086545944213867188,
1.915,-0.071905255317687988,,1.915,-0.0064188241958618164,
1.9175,-0.070799395442008972,,1.9175,-0.002043446060270071,
1.9199999999999999,-0.070631109178066254,,1.9199999999999999,0.00014424324035644531,
1.9225000000000001,-0.071328282356262207,,1.9225000000000001,0.0024040541611611843,
1.925,-0.072313949465751648,,1.925,0.0046879053115844727,
1.9275,-0.073371730744838715,,1.9275,0.0070198378525674343,
1.9299999999999999,-0.07493436336517334,,1.9299999999999999,0.011755824089050293,
1.9325000000000001,-0.075126692652702332,,1.9325000000000001,0.014135837554931641,
1.9350000000000001,-0.074838206171989441,,1.9350000000000001,0.016563933342695236,
1.9375,-0.074141025543212891,,1.9375,0.021612446755170822,
1.9399999999999999,-0.071833133697509766,,1.9399999999999999,0.024329027161002159,
1.9424999999999999,-0.070558987557888031,,1.9424999999999999,0.027286013588309288,
1.9450000000000001,-0.069405041635036469,,1.9450000000000001,0.030531486496329308,
1.9475,-0.068443417549133301,,1.9475,0.038032136857509613,
1.95,-0.067361593246459961,,1.95,0.042383473366498947,
1.9524999999999999,-0.067145228385925293,,1.9524999999999999,0.047119460999965668,
1.9550000000000001,-0.066976949572563171,,1.9550000000000001,0.052264135330915451,
1.9575,-0.066760584712028503,,1.9575,0.063731476664543152,
1.96,-0.065750882029533386,,1.96,0.06998201459646225,
1.9624999999999999,-0.064861379563808441,,1.9624999999999999,0.076521039009094238,
1.9650000000000001,-0.063755512237548828,,1.9650000000000001,0.083348557353019714,
1.9675,-0.062529444694519043,,1.9675,0.0976286381483078,
1.97,-0.060293674468994141,,1.97,0.10498504340648651,
1.9724999999999999,-0.059596501290798187,,1.9724999999999999,0.11241357028484344,
1.9750000000000001,-0.059356093406677246,,1.9750000000000001,0.11986613273620605,
1.9775,-0.059596501290798187,,1.9775,0.1344587504863739,
1.98,-0.061615906655788422,,1.98,0.14143049716949463,
1.9824999999999999,-0.063226625323295593,,1.9824999999999999,0.14808973670005798,
1.9850000000000001,-0.065053701400756836,,1.9850000000000001,0.15438835322856903,
1.9875,-0.066976949572563171,,1.9875,0.16573548316955566,
1.99,-0.070390701293945312,,1.99,0.17080804705619812,
1.9924999999999999,-0.071544647216796875,,1.9924999999999999,0.17554402351379395,
1.9950000000000001,-0.072193741798400879,,1.9950000000000001,0.1799674928188324,
1.9975000000000001,-0.072217784821987152,,1.9975000000000001,0.18811723589897156,
2,-0.070222422480583191,83.333335876464844,2,0.19189159572124481,46.875
2.0024999999999999,-0.068178974092006683,,2.0024999999999999,0.1954495906829834,
2.0049999999999999,-0.065486431121826172,,2.0049999999999999,0.19871911406517029,
2.0074999999999998,-0.062265001237392426,,2.0074999999999998,0.20381569862365723,
2.0099999999999998,-0.054812431335449219,,2.0099999999999998,0.205234095454216,
2.0125000000000002,-0.050917863845825195,,2.0125000000000002,0.20561873912811279,
2.0150000000000001,-0.047215621918439865,,2.0150000000000001,0.20470520853996277,
2.0175000000000001,-0.043873988091945648,,2.0175000000000001,0.1983344554901123,
2.02,-0.039113961160182953,,2.02,0.19266089797019958,
2.0225,-0.037935972213745117,,2.0225,0.18535256385803223,
2.0249999999999999,-0.0376715287566185,,2.0249999999999999,0.17648160457611084,
2.0274999999999999,-0.03829658031463623,,2.0274999999999999,0.15491724014282227,
2.0299999999999998,-0.041734378784894943,,2.0299999999999998,0.14275273680686951,
2.0325000000000002,-0.044138431549072266,,2.0325000000000002,0.130083367228508,
2.0350000000000001,-0.046686731278896332,,2.0350000000000001,0.11714955419301987,
2.0375000000000001,-0.048994623124599457,,2.0375000000000001,0.091378092765808105,
2.04,-0.051663123071193695,,2.04,0.078804895281791687,
2.0425,-0.051446758210659027,,2.0425,0.066496133804321289,
2.0449999999999999,-0.049932204186916351,,2.0449999999999999,0.054451823234558105,
2.0474999999999999,-0.04707137867808342,,2.0474999999999999,0.030988257378339767,
2.0499999999999998,-0.0376715287566185,,2.0499999999999998,0.01954495906829834,
2.0525000000000002,-0.031661391258239746,,2.0525000000000002,0.0083180274814367294,
2.0550000000000002,-0.02524256706237793,,2.0550000000000002,-0.0025963783264160156,
2.0575000000000001,-0.01891990564763546,,2.0575000000000001,-0.02307891845703125,
2.0600000000000001,-0.0084622707217931747,,2.0600000000000001,-0.032334528863430023,
2.0625,-0.0051446757279336452,,2.0625,-0.040724676102399826,
2.0649999999999999,-0.0034377973061054945,,2.0649999999999999,-0.04815320298075676,
2.0674999999999999,-0.0034618377685546875,,2.0674999999999999,-0.059933066368103027,
2.0699999999999998,-0.0052167973481118679,,2.0699999999999998,-0.064380571246147156,
2.0724999999999998,-0.013150176033377647,,2.0724999999999998,-0.067986652255058289,
2.0750000000000002,-0.018727581948041916,,2.0750000000000002,-0.070943638682365417,
2.0775000000000001,-0.02490600012242794,,2.0775000000000001,-0.075535379350185394,
2.0800000000000001,-0.037743650376796722,,2.0800000000000001,-0.077482663094997406,
2.0825,-0.0438259057700634,,2.0825,-0.079357825219631195,
2.085,-0.049379270523786545,,2.085,-0.081257030367851257,
2.0874999999999999,-0.054283540695905685,,2.0874999999999999,-0.085127554833889008,
2.0899999999999999,-0.06200055405497551,,2.0899999999999999,-0.087074838578701019,
2.0924999999999998,-0.064837336540222168,,2.0924999999999998,-0.088998079299926758,
2.0950000000000002,-0.06707310676574707,,2.0950000000000002,-0.090825162827968597,
2.0975000000000001,-0.068779990077018738,,2.0975000000000001,-0.09409467875957489,
2.1000000000000001,-0.070030093193054199,,2.1000000000000001,-0.095464989542961121,
2.1025,-0.07140040397644043,,2.1025,-0.096642971038818359,
2.105,-0.071496568620204926,,2.105,-0.097604595124721527,
2.1074999999999999,-0.071160003542900085,,2.1074999999999999,-0.09871046245098114,
2.1099999999999999,-0.068876147270202637,,2.1099999999999999,-0.098830662667751312,
2.1124999999999998,-0.06678462028503418,,2.1124999999999998,-0.098614297807216644,
2.1150000000000002,-0.064092084765434265,,2.1150000000000002,-0.098061367869377136,
2.1175000000000002,-0.060990851372480392,,2.1175000000000002,-0.096065998077392578,
2.1200000000000001,-0.05505283921957016,,2.1200000000000001,-0.094743773341178894,
2.1225000000000001,-0.053418081253767014,,2.1225000000000001,-0.093277297914028168,
2.125,-0.053730607032775879,,2.125,-0.091834865510463715,
2.1274999999999999,-0.056807797402143478,,2.1274999999999999,-0.089454852044582367,
2.1299999999999999,-0.0738525390625,,2.1299999999999999,-0.08873363584280014,
2.1324999999999998,-0.0883970707654953,,2.1324999999999998,-0.088373027741909027,
2.1349999999999998,-0.10657171905040741,,2.1349999999999998,-0.088421106338500977,
2.1375000000000002,-0.12739083170890808,,2.1375000000000002,-0.089382730424404144,
2.1400000000000001,-0.14926771819591522,,2.1400000000000001,-0.090055868029594421,
2.1425000000000001,-0.18713156878948212,,2.1425000000000001,-0.090680919587612152,
2.145,-0.1976853609085083,,2.145,-0.091065570712089539,
2.1475,-0.19879123568534851,,2.1475,-0.090753041207790375,
2.1499999999999999,-0.16275446116924286,,2.1499999999999999,-0.089935660362243652,
2.1524999999999999,-0.12212594598531723,,2.1524999999999999,-0.088709592819213867,
2.1549999999999998,-0.065678760409355164,,2.1549999999999998,-0.087171003222465515,
2.1575000000000002,0.0056976079940795898,,2.1575000000000002,-0.083757244050502777,
2.1600000000000001,0.18338124454021454,,2.1600000000000001,-0.082170568406581879,
2.1625000000000001,0.28168302774429321,,2.1625000000000001,-0.080800257623195648,
2.165,0.37928760051727295,,2.165,-0.079766511917114258,
2.1675,0.4701608419418335,,2.1675,-0.078684687614440918,
2.1699999999999999,0.60791313648223877,,2.1699999999999999,-0.078588530421257019,
2.1724999999999999,0.64438265562057495,,2.1724999999999999,-0.078708730638027191,
2.1749999999999998,0.6544075608253479,,2.1749999999999998,-0.078973174095153809,
2.1775000000000002,0.63652139902114868,,2.1775000000000002,-0.07983863353729248,
2.1800000000000002,0.52136719226837158,,2.1800000000000002,-0.080343484878540039,
2.1825000000000001,0.43131133913993835,,2.1825000000000001,-0.080896422266960144,
2.1850000000000001,0.32719177007675171,,2.1850000000000001,-0.081449352204799652,
2.1875,0.21598021686077118,,2.1875,-0.082459054887294769,
2.1899999999999999,0.0011779865017160773,,2.1899999999999999,-0.082795619964599609,
2.1924999999999999,-0.089647173881530762,,2.1924999999999999,-0.082987949252128601,
2.1949999999999998,-0.16311506927013397,,2.1949999999999998,-0.082987949252128601,
2.1974999999999998,-0.21677355468273163,,2.1974999999999998,-0.082314811646938324,
2.2000000000000002,-0.26425361633300781,,2.2000000000000002,-0.081785917282104492,
2.2025000000000001,-0.26206594705581665,,2.2025000000000001,-0.081208944320678711,
2.2050000000000001,-0.24728100001811981,,2.2050000000000001,-0.080704092979431152,
2.2075,-0.22405783832073212,,2.2075,-0.080223284661769867,
2.21,-0.16842803359031677,,2.21,-0.080343484878540039,
2.2124999999999999,-0.14246425032615662,,2.2124999999999999,-0.08063197135925293,
2.2149999999999999,-0.12049119174480438,,2.2149999999999999,-0.080992579460144043,
2.2174999999999998,-0.10335028171539307,,2.2174999999999998,-0.081401273608207703,
2.2200000000000002,-0.091065570712089539,,2.2200000000000002,-0.081136822700500488,
2.2225000000000001,-0.077987514436244965,,2.2225000000000001,-0.080439649522304535,
2.2250000000000001,-0.075054571032524109,,2.2250000000000001,-0.079237625002861023,
2.2275,-0.073107287287712097,,2.2275,-0.075487300753593445,
2.23,-0.069212719798088074,,2.23,-0.073131322860717773,
2.2324999999999999,-0.066544219851493835,,2.2324999999999999,-0.070631109178066254,
2.2349999999999999,-0.063322782516479492,,2.2349999999999999,-0.068203017115592957,
2.2374999999999998,-0.059764783829450607,,2.2374999999999998,-0.063875719904899597,
2.2400000000000002,-0.052480500191450119,,2.2400000000000002,-0.062192879617214203,
2.2425000000000002,-0.049162905663251877,,2.2425000000000002,-0.060846608132123947,
2.2450000000000001,-0.046133797615766525,,2.2450000000000001,-0.05983690544962883,
2.2475000000000001,-0.043393176048994064,,2.2475000000000001,-0.058706998825073242,
2.25,-0.038585066795349121,,2.25,-0.058514676988124847,
2.2524999999999999,-0.036349296569824219,,2.2524999999999999,-0.058514676988124847,
2.2549999999999999,-0.034161608666181564,,2.2549999999999999,-0.058658920228481293,
2.2574999999999998,-0.032021999359130859,,2.2574999999999998,-0.059283971786499023,
2.2599999999999998,-0.027959149330854416,,2.2599999999999998,-0.059620540589094162,
2.2625000000000002,-0.026059946045279503,,2.2625000000000002,-0.059860944747924805,
2.2650000000000001,-0.024256905540823936,,2.2650000000000001,-0.059909027069807053,
2.2675000000000001,-0.02245386503636837,,2.2675000000000001,-0.059235893189907074,
2.27,-0.018487175926566124,,2.27,-0.058442555367946625,
2.2725,-0.0161312036216259,,2.2725,-0.05738477036356926,
2.2749999999999999,-0.013414621353149414,,2.2749999999999999,-0.056158702820539474,
2.2774999999999999,-0.01031339168548584,,2.2774999999999999,-0.053730607032775879,
2.2799999999999998,-0.0030771892052143812,,2.2799999999999998,-0.052865147590637207,
2.2825000000000002,0.00084141892148181796,,2.2825000000000002,-0.052408378571271896,
2.2850000000000001,0.0047119460068643093,,2.2850000000000001,-0.052432417869567871,
2.2875000000000001,0.0083661079406738281,,2.2875000000000001,-0.053922932595014572,
2.29,0.014352202415466309,,2.29,-0.055173039436340332,
2.2925,0.01646777056157589,,2.2925,-0.056567393243312836,
2.2949999999999999,0.017958283424377441,,2.2949999999999999,-0.057889621704816818,
2.2974999999999999,0.018847784027457237,,2.2974999999999999,-0.059572458267211914,
2.2999999999999998,0.019232433289289474,,2.2999999999999998,-0.059692662209272385,
2.3025000000000002,0.019064148887991905,,2.3025000000000002,-0.059259932488203049,
2.3050000000000002,0.018871825188398361,,2.3050000000000002,-0.058346390724182129,
2.3075000000000001,0.018871825188398361,,2.3075000000000001,-0.055701933801174164,
2.3100000000000001,0.0200017299503088,,2.3100000000000001,-0.054355662316083908,
2.3125,0.021420121192932129,,2.3125,-0.053249798715114594,
2.3149999999999999,0.023511648178100586,,2.3149999999999999,-0.05260070413351059,
2.3174999999999999,0.026276310905814171,,2.3174999999999999,-0.052817068994045258,
2.3199999999999998,0.033728878945112228,,2.3199999999999998,-0.053658485412597656,
2.3224999999999998,0.038248501718044281,,2.3224999999999998,-0.054836474359035492,
2.3250000000000002,0.043128728866577148,,2.3250000000000002,-0.056158702820539474,
2.3275000000000001,0.048249363899230957,,2.3275000000000001,-0.058370433747768402,
2.3300000000000001,0.058538716286420822,,2.3300000000000001,-0.058899324387311935,
2.3325,0.063515111804008484,,2.3325,-0.058875285089015961,
2.335,0.068275138735771179,,2.335,-0.058322351425886154,
2.3374999999999999,0.07277071475982666,,2.3374999999999999,-0.055918298661708832,
2.3399999999999999,0.081136822700500488,,2.3399999999999999,-0.054379701614379883,
2.3424999999999998,0.085103511810302734,,2.3424999999999998,-0.05288919061422348,
2.3450000000000002,0.089022122323513031,,2.3450000000000002,-0.051615040749311447,
2.3475000000000001,0.092988811433315277,,2.3475000000000001,-0.050124526023864746,
2.3500000000000001,0.10116259753704071,,2.3500000000000001,-0.049932204186916351,
2.3525,0.10548989474773407,,2.3525,-0.050028365105390549,
2.355,0.1099373921751976,,2.355,-0.050244729965925217,
2.3574999999999999,0.1145050972700119,,2.3574999999999999,-0.050509177148342133,
2.3599999999999999,0.12385686486959457,,2.3599999999999999,-0.050340890884399414,
2.3624999999999998,0.12856881320476532,,2.3624999999999998,-0.049884121865034103,
2.3650000000000002,0.13320863246917725,,2.3650000000000002,-0.049162905663251877,
2.3675000000000002,0.13780038058757782,,2.3675000000000002,-0.04723966121673584,
2.3700000000000001,0.14664730429649353,,2.3700000000000001,-0.046229958534240723,
2.3725000000000001,0.15085439383983612,,2.3725000000000001,-0.045316420495510101,
2.375,0.15486916899681091,,2.375,-0.044475000351667404,
2.3774999999999999,0.15861949324607849,,2.3774999999999999,-0.042936407029628754,
2.3799999999999999,0.16496619582176208,,2.3799999999999999,-0.042046904563903809,
2.3824999999999998,0.16729812324047089,,2.3824999999999998,-0.040868919342756271,
2.3849999999999998,0.16890883445739746,,2.3849999999999998,-0.039330326020717621,
2.3875000000000002,0.16963005065917969,,2.3875000000000002,-0.034954946488142014,
2.3900000000000001,0.16811549663543701,,2.3900000000000001,-0.032214324921369553,
2.3925000000000001,0.16578356921672821,,2.3925000000000001,-0.029281377792358398,
2.395,0.16249001026153564,,2.395,-0.026348432525992393,
2.3975,0.15830695629119873,,2.3975,-0.021444162353873253,
2.3999999999999999,0.14801761507987976,,2.3999999999999999,-0.019905567169189453,
2.4024999999999999,0.14224788546562195,,2.4024999999999999,-0.019160311669111252,
2.4049999999999998,0.1362377405166626,,2.4049999999999998,-0.019304554909467697,
2.4075000000000002,0.13005933165550232,,2.4075000000000002,-0.022021135315299034,
2.4100000000000001,0.11722167581319809,,2.4100000000000001,-0.024353068321943283,
2.4125000000000001,0.11039416491985321,,2.4125000000000001,-0.027093689888715744,
2.415,0.1031339168548584,,2.415,-0.029954513534903526,
2.4175,0.095320746302604675,,2.4175,-0.035123229026794434,
2.4199999999999999,0.077771149575710297,,2.4199999999999999,-0.036902230232954025,
2.4224999999999999,0.068082809448242188,,2.4224999999999999,-0.037815771996974945,
2.4249999999999998,0.057961743324995041,,2.4249999999999998,-0.037695568054914474,
2.4275000000000002,0.047600269317626953,,2.4275000000000002,-0.03368079662322998,
2.4300000000000002,0.027310054749250412,,2.4300000000000002,-0.029666027054190636,
2.4325000000000001,0.017934244126081467,,2.4325000000000001,-0.024353068321943283,
2.4350000000000001,0.0094238920137286186,,2.4350000000000001,-0.017934244126081467,
2.4375,0.0019472837448120117,,2.4375,-0.0029569864273071289,
2.4399999999999999,-0.0097123784944415092,,2.4399999999999999,0.0047600269317626953,
2.4424999999999999,-0.013991594314575195,,2.4424999999999999,0.012020270340144634,
2.4449999999999998,-0.017429392784833908,,2.4449999999999998,0.018270811066031456,
2.4474999999999998,-0.020266175270080566,,2.4474999999999998,0.026059946045279503,
2.4500000000000002,-0.024930041283369064,,2.4500000000000002,0.026997527107596397,
2.4525000000000001,-0.027189850807189941,,2.4525000000000001,0.025819540023803711,
2.4550000000000001,-0.029593905434012413,,2.4550000000000001,0.022598108276724815,
2.4575,-0.032190285623073578,,2.4575,0.011202892288565636,
2.46,-0.037863850593566895,,2.46,0.0038945674896240234,
2.4624999999999999,-0.040748715400695801,,2.4624999999999999,-0.0038705270271748304,
2.4649999999999999,-0.043465297669172287,,2.4649999999999999,-0.011539459228515625,
2.4674999999999998,-0.045893393456935883,,2.4674999999999998,-0.025194486603140831,
2.4700000000000002,-0.049259066581726074,,2.4700000000000002,-0.030675729736685753,
2.4725000000000001,-0.050052404403686523,,2.4725000000000001,-0.035147272050380707,
2.4750000000000001,-0.050244729965925217,,2.4750000000000001,-0.038681231439113617,
2.4775,-0.049908161163330078,,2.4775,-0.043801866471767426,
2.48,-0.048129163682460785,,2.48,-0.04582127183675766,
2.4824999999999999,-0.047023296356201172,,2.4824999999999999,-0.047768555581569672,
2.4849999999999999,-0.04598955437541008,,2.4849999999999999,-0.04969179630279541,
2.4874999999999998,-0.045148134231567383,,2.4874999999999998,-0.053394041955471039,
2.4900000000000002,-0.044450961053371429,,2.4900000000000002,-0.054812431335449219,
2.4925000000000002,-0.044619243592023849,,2.4925000000000002,-0.055605769157409668,
2.4950000000000001,-0.04507601261138916,,2.4950000000000001,-0.055509608238935471,
2.4975000000000001,-0.045701067894697189,,2.4975000000000001,-0.05197564885020256,
2.5,-0.047023296356201172,,2.5,-0.048706136643886566,
2.5024999999999999,-0.047504108399152756,,2.5024999999999999,-0.044859647750854492,
2.5049999999999999,-0.047720473259687424,,2.5049999999999999,-0.041061244904994965,
2.5074999999999998,-0.047624312341213226,,2.5074999999999998,-0.037214756011962891,
2.5099999999999998,-0.046614609658718109,,2.5099999999999998,-0.03904183954000473,
2.5125000000000002,-0.045797228813171387,,2.5125000000000002,-0.044547121971845627,
2.5150000000000001,-0.04490773007273674,,2.5150000000000001,-0.05430757999420166,
2.5175000000000001,-0.044042270630598068,,2.5175000000000001,-0.086762309074401855,
2.52,-0.042720042169094086,,2.52,-0.10832667350769043,
2.5225,-0.042407512664794922,,2.5225,-0.13174216449260712,
2.5249999999999999,-0.042335391044616699,,2.5249999999999999,-0.15506148338317871,
2.5274999999999999,-0.042503677308559418,,2.5274999999999999,-0.19157907366752625,
2.5299999999999998,-0.043176811188459396,,2.5299999999999998,-0.19919991493225098,
2.5325000000000002,-0.043513379991054535,,2.5325000000000002,-0.19597849249839783,
2.5350000000000001,-0.043681662529706955,,2.5350000000000001,-0.17934243381023407,
2.5375000000000001,-0.043561458587646484,,2.5375000000000001,-0.098109446465969086,
2.54,-0.042263269424438477,,2.54,-0.031781595200300217,
2.5425,-0.041037201881408691,,2.5425,0.051086150109767914,
2.5449999999999999,-0.039450526237487793,,2.5449999999999999,0.14837822318077087,
2.5474999999999999,-0.037575364112854004,,2.5474999999999999,0.37108978629112244,
2.5499999999999998,-0.033560596406459808,,2.5499999999999998,0.48576316237449646,
2.5525000000000002,-0.031661391258239746,,2.5525000000000002,0.59392154216766357,
2.5550000000000002,-0.030050676316022873,,2.5550000000000002,0.68852108716964722,
2.5575000000000001,-0.028800567612051964,,2.5575000000000001,0.81110382080078125,
2.5600000000000001,-0.02752641960978508,,2.5600000000000001,0.82908612489700317,
2.5625,-0.027478337287902832,,2.5625,0.8146136999130249,
2.5649999999999999,-0.027670662850141525,,2.5649999999999999,0.7679750919342041,
2.5674999999999999,-0.027959149330854416,,2.5674999999999999,0.59166175127029419,
2.5699999999999998,-0.028199553489685059,,2.5699999999999998,0.47400733828544617,
2.5724999999999998,-0.027790864929556847,,2.5724999999999998,0.34712135791778564,
2.5750000000000002,-0.026877325028181076,,2.5750000000000002,0.21953821182250977,
2.5775000000000001,-0.025434892624616623,,2.5775000000000001,-0.0067794322967529297,
2.5800000000000001,-0.023511648178100586,,2.5800000000000001,-0.09368598461151123,
2.5825,-0.018655460327863693,,2.5825,-0.15859544277191162,
2.585,-0.016083121299743652,,2.585,-0.20090679824352264,
2.5874999999999999,-0.013727148994803429,,2.5874999999999999,-0.22533199191093445,
2.5899999999999999,-0.011731783859431744,,2.5899999999999999,-0.21475414931774139,
2.5924999999999998,-0.0093036890029907227,,2.5924999999999998,-0.19504091143608093,
2.5950000000000002,-0.00891904067248106,,2.5950000000000002,-0.17068783938884735,
2.5975000000000001,-0.0089671220630407333,,2.5975000000000001,-0.12275099754333496,
2.6000000000000001,-0.0098085403442382812,,2.6000000000000001,-0.10395129770040512,
2.6025,-0.010265311226248741,,2.6025,-0.089959703385829926,
2.605,-0.010529756546020508,,2.605,-0.08063197135925293,
2.6074999999999999,-0.010529756546020508,,2.6074999999999999,-0.072410106658935547,
2.6099999999999999,-0.0097364187240600586,,2.6099999999999999,-0.07106383889913559,
2.6124999999999998,-0.0090873241424560547,,2.6124999999999998,-0.070006057620048523,
2.6150000000000002,-0.0083901491016149521,,2.6150000000000002,-0.068395338952541351,
2.6175000000000002,-0.0078131761401891708,,2.6175000000000002,-0.061952471733093262,
2.6200000000000001,-0.0074285268783569336,,2.6200000000000001,-0.057096283882856369,
2.6225000000000001,-0.0073804459534585476,,2.6225000000000001,-0.051566958427429199,
2.625,-0.0076929731294512749,,2.625,-0.045797228813171387,
2.6274999999999999,-0.0081257028505206108,,2.6274999999999999,-0.035051107406616211,
2.6299999999999999,-0.0085103511810302734,,2.6299999999999999,-0.030651688575744629,
2.6324999999999998,-0.0087747974321246147,,2.6324999999999998,-0.027093689888715744,
2.6349999999999998,-0.0084382295608520508,,2.6349999999999998,-0.024353068321943283,
2.6375000000000002,-0.0076929731294512749,,2.6375000000000002,-0.02074698731303215,
2.6400000000000001,-0.0050485134124755859,,2.6400000000000001,-0.019520919770002365,
2.6425000000000001,-0.0032214324455708265,,2.6425000000000001,-0.018439095467329025,
2.645,-0.0012020270805805922,,2.645,-0.017309188842773438,
2.6475,0.00091354054166004062,,2.6475,-0.014472405426204205,
2.6499999999999999,0.0051446757279336452,,2.6499999999999999,-0.012621283531188965,
2.6524999999999999,0.007091959472745657,,2.6524999999999999,-0.010433594696223736,
2.6549999999999998,0.008822878822684288,,2.6549999999999998,-0.0080054998397827148,
2.6575000000000002,0.010265311226248741,,2.6575000000000002,-0.0025482974015176296,
2.6600000000000001,0.012068351730704308,,2.6600000000000001,0.00026444596005603671,
2.6625000000000001,0.012332797050476074,,2.6625000000000001,0.0029810271225869656,
2.665,0.01214047335088253,,2.665,0.0055052838288247585,
2.6675,0.011467337608337402,,2.6675,0.0097123784944415092,
2.6699999999999999,0.010337432846426964,,2.6699999999999999,0.011299054138362408,
2.6724999999999999,0.0073083243332803249,,2.6724999999999999,0.012621283531188965,
2.6749999999999998,0.0057697296142578125,,2.6749999999999998,0.013727148994803429,
2.6775000000000002,0.0045436620712280273,,2.6775000000000002,0.015746554359793663,
2.6800000000000002,0.0043272972106933594,,2.6800000000000002,0.016948580741882324,
2.6825000000000001,0.0058178110048174858,,2.6825000000000001,0.018415054306387901,
2.6850000000000001,0.0085584325715899467,,2.6850000000000001,0.02029021643102169,
2.6875,0.012549161911010742,,2.6875,0.025218527764081955,
2.6899999999999999,0.017597675323486328,,2.6899999999999999,0.028247635811567307,
2.6924999999999999,0.029545824974775314,,2.6924999999999999,0.031517148017883301,
2.6949999999999998,0.035411715507507324,,2.6949999999999998,0.034930907189846039,
2.6974999999999998,0.040508311241865158,,2.6974999999999998,0.041782461106777191,
2.7000000000000002,0.044330757111310959,,2.7000000000000002,0.045051973313093185,
2.7025000000000001,0.046662688255310059,,2.7025000000000001,0.04815320298075676,
2.7050000000000001,0.04490773007273674,,2.7050000000000001,0.051110189408063889,
2.7075,0.041349731385707855,,2.7075,0.056855879724025726,
2.71,0.030291080474853516,,2.71,0.059788823127746582,
2.7124999999999999,0.023703973740339279,,2.7124999999999999,0.06286601722240448,
2.7149999999999999,0.017140906304121017,,2.7149999999999999,0.066207647323608398,
2.7174999999999998,0.010962486267089844,,2.7174999999999998,0.073876582086086273,
2.7200000000000002,0.0055293245241045952,,2.7200000000000002,0.078227922320365906,
2.7225000000000001,-0.002524256706237793,,2.7225000000000001,0.082939863204956055,
2.7250000000000001,-0.0052408380433917046,,2.7250000000000001,0.087964341044425964,
2.7275,-0.0072842836380004883,,2.7275,0.098662376403808594,
2.73,-0.0088709592819213867,,2.73,0.10416766256093979,
2.7324999999999999,-0.01168370246887207,,2.7324999999999999,0.10969698429107666,
2.7349999999999999,-0.013174216262996197,,2.7349999999999999,0.11515419185161591,
2.7374999999999998,-0.014784932136535645,,2.7374999999999998,0.12580415606498718,
2.7400000000000002,-0.016419690102338791,,2.7400000000000002,0.13099691271781921,
2.7425000000000002,-0.019040107727050781,,2.7425000000000002,0.13621370494365692,
2.7450000000000001,-0.019569000229239464,,2.7450000000000001,0.14150261878967285,
2.7475000000000001,-0.019280513748526573,,2.7475000000000001,0.15280167758464813,
2.75,-0.018078487366437912,,2.75,0.15900413691997528,
2.7524999999999999,-0.013246337883174419,,2.7524999999999999,0.16559123992919922,
2.7549999999999999,-0.010217229835689068,,2.7549999999999999,0.17251491546630859,
2.7574999999999998,-0.0075487298890948296,,2.7574999999999998,0.18705944716930389,
2.7599999999999998,-0.0059380135498940945,,2.7599999999999998,0.19427160918712616,
2.7625000000000002,-0.0092075271531939507,,2.7625000000000002,0.20117124915122986,
2.7650000000000001,-0.015482108108699322,,2.7650000000000001,0.2075660228729248,
2.7675000000000001,-0.025434892624616623,,2.7675000000000001,0.21811982989311218,
2.77,-0.055750012397766113,,2.77,0.2221105545759201,
2.7725,-0.07454971969127655,,2.7725,0.225187748670578,
2.7749999999999999,-0.093878313899040222,,2.7749999999999999,0.22737543284893036,
2.7774999999999999,-0.11164426803588867,,2.7774999999999999,0.22927463054656982,
2.7799999999999998,-0.13255953788757324,,2.7799999999999998,0.2290101945400238,
2.7825000000000002,-0.13039588928222656,,2.7825000000000002,0.22795240581035614,
2.7850000000000001,-0.11652450263500214,,2.7850000000000001,0.22600512206554413,
2.7875000000000001,-0.089022122323513031,,2.7875000000000001,0.21910548210144043,
2.79,0.010722081176936626,,2.79,0.21396081149578094,
2.7925,0.082290768623352051,,2.7925,0.20759007334709167,
2.7949999999999999,0.16587972640991211,,2.7949999999999999,0.19996921718120575,
2.7974999999999999,0.2580992579460144,,2.7974999999999999,0.18126568198204041,
2.7999999999999998,0.44955810904502869,,2.7999999999999998,0.17044743895530701,
2.8025000000000002,0.53745031356811523,,2.8025000000000002,0.15890797972679138,
2.8050000000000002,0.61212027072906494,,2.8050000000000002,0.14688770473003387,
2.8075000000000001,0.6680145263671875,,2.8075000000000001,0.12210190296173096,
2.8100000000000001,0.7004692554473877,,2.8100000000000001,0.10972102731466293,
2.8125,0.68438613414764404,,2.8125,0.097460351884365082,
2.8149999999999999,0.63534343242645264,,2.8149999999999999,0.085440084338188171,
2.8174999999999999,0.5620918869972229,,2.8174999999999999,0.06216883659362793,
2.8199999999999998,0.36327660083770752,,2.8199999999999998,0.050941906869411469,
2.8224999999999998,0.25098323822021484,,2.8224999999999998,0.040027499198913574,
2.8250000000000002,0.13977169990539551,,2.8250000000000002,0.029473703354597092,
2.8275000000000001,0.036397378891706467,,2.8275000000000001,0.0097604598850011826,
2.8300000000000001,-0.053466163575649261,,2.8300000000000001,0.00079333782196044922,
2.8325,-0.17811636626720428,,2.8325,-0.0074285268783569336,
2.835,-0.21035473048686981,,2.835,-0.014833013527095318,
2.8374999999999999,-0.22384147346019745,,2.8374999999999999,-0.027021568268537521,
2.8399999999999999,-0.2068207710981369,,2.8399999999999999,-0.031877756118774414,
2.8424999999999998,-0.18415054678916931,,2.8424999999999998,-0.035964649170637131,
2.8450000000000002,-0.15746554732322693,,2.8450000000000002,-0.039426486939191818,
2.8475000000000001,-0.13025164604187012,,2.8475000000000001,-0.044955812394618988,
2.8500000000000001,-0.084069773554801941,,2.8500000000000001,-0.04723966121673584,
2.8525,-0.067626044154167175,,2.8525,-0.049283109605312347,
2.855,-0.055846177041530609,,2.855,-0.051110189408063889,
2.8574999999999999,-0.048105120658874512,,2.8574999999999999,-0.054187379777431488,
2.8599999999999999,-0.040412150323390961,,2.8599999999999999,-0.055341325700283051,
2.8624999999999998,-0.038248501718044281,,2.8624999999999998,-0.056182742118835449,
2.8650000000000002,-0.035964649170637131,,2.8650000000000002,-0.056711636483669281,
2.8675000000000002,-0.033007662743330002,,2.8675000000000002,-0.056879919022321701,
2.8700000000000001,-0.02444922924041748,,2.8700000000000001,-0.056663554161787033,
2.8725000000000001,-0.019112229347229004,,2.8725000000000001,-0.056399106979370117,
2.875,-0.013486742973327637,,2.875,-0.056182742118835449,
2.8774999999999999,-0.0079814596101641655,,2.8774999999999999,-0.056399106979370117,
2.8799999999999999,0.0015145540237426758,,2.8799999999999999,-0.056952040642499924,
2.8824999999999998,0.0051206350326538086,,2.8824999999999998,-0.057817500084638596,
2.8849999999999998,0.0079814596101641655,,2.8849999999999998,-0.05892336368560791,
2.8875000000000002,0.010193189606070518,,2.8875000000000002,-0.061471663415431976,
2.8900000000000001,0.013270378112792969,,2.8900000000000001,-0.062649652361869812,
2.8925000000000001,0.014520486816763878,,2.8925000000000001,-0.063611268997192383,
2.895,0.015722513198852539,,2.895,-0.06428440660238266,
2.8975,0.016948580741882324,,2.8975,-0.064572893083095551,
2.8999999999999999,0.019448798149824142,,2.8999999999999999,-0.064260363578796387,
2.9024999999999999,0.02062678337097168,,2.9024999999999999,-0.063779555261135101,
2.9049999999999998,0.021636486053466797,,2.9049999999999998,-0.063178539276123047,
2.9075000000000002,0.022525986656546593,,2.9075000000000002,-0.06212075799703598,
2.9100000000000001,0.023968419060111046,,2.9100000000000001,-0.061760149896144867,
2.9125000000000001,0.024785798043012619,,2.9125000000000001,-0.061543785035610199,
2.915,0.025819540023803711,,2.915,-0.061423581093549728,
2.9175,0.027261972427368164,,2.9175,-0.061231255531311035,
2.9199999999999999,0.031685434281826019,,2.9199999999999999,-0.061014890670776367,
2.9224999999999999,0.034738581627607346,,2.9224999999999999,-0.060606203973293304,
2.9249999999999998,0.038224458694458008,,2.9249999999999998,-0.060029231011867523,
2.9275000000000002,0.041974782943725586,,2.9275000000000002,-0.058442555367946625,
2.9300000000000002,0.049427352845668793,,2.9300000000000002,-0.057577095925807953,
2.9325000000000001,0.052720904350280762,,2.9325000000000001,-0.056783758103847504,
2.9350000000000001,0.055533647537231445,,2.9350000000000001,-0.056182742118835449,
2.9375,0.057769417762756348,,2.9375,-0.055798094719648361,
2.9399999999999999,0.060630243271589279,,2.9399999999999999,-0.056014459580183029,
2.9424999999999999,0.061543785035610199,,2.9424999999999999,-0.056447189301252365,
2.9449999999999998,0.062313079833984375,,2.9449999999999998,-0.056952040642499924,
2.9474999999999998,0.063178539276123047,,2.9474999999999998,-0.057769417762756348,
2.9500000000000002,0.065919160842895508,,2.9500000000000002,-0.05784153938293457,
2.9525000000000001,0.068010687828063965,,2.9525000000000001,-0.05755305290222168,
2.9550000000000001,0.070655152201652527,,2.9550000000000001,-0.056952040642499924,
2.9575,0.073828503489494324,,2.9575,-0.055076878517866135,
2.96,0.08132915198802948,,2.96,-0.054043136537075043,
2.9624999999999999,0.085343919694423676,,2.9624999999999999,-0.053153634071350098,
2.9649999999999999,0.089358687400817871,,2.9649999999999999,-0.052552621811628342,
2.9674999999999998,0.093205176293849945,,2.9674999999999998,-0.052432417869567871,
2.9700000000000002,0.10000865161418915,,2.9700000000000002,-0.052865147590637207,
2.9725000000000001,0.10294159501791,,2.9725000000000001,-0.053490202873945236,
2.9750000000000001,0.10561009496450424,,2.9750000000000001,-0.054115258157253265,
2.9775,0.10815839469432831,,2.9775,-0.054547987878322601,
2.98,0.11354347318410873,,2.98,-0.05401909351348877,
2.9824999999999999,0.11671682447195053,,2.9824999999999999,-0.052865147590637207,
2.9849999999999999,0.12041907012462616,,2.9849999999999999,-0.051086150109767914,
2.9874999999999998,0.1247704029083252,,2.9874999999999998,-0.04598955437541008,
2.9900000000000002,0.13549248874187469,,2.9900000000000002,-0.043008528649806976,
2.9925000000000002,0.14176706969738007,,2.9925000000000002,-0.040027499198913574,
2.9950000000000001,0.14852246642112732,,2.9950000000000001,-0.037262838333845139,
2.9975000000000001,0.15554229915142059,,2.9975000000000001,-0.033031702041625977,
3,0.16958197951316833,85.714286804199219,3,-0.031757555902004242,0
3.0024999999999999,0.1761450469493866,,3.0024999999999999,-0.031084418296813965,
3.0049999999999999,0.18215517699718475,,3.0049999999999999,-0.030988257378339767,
3.0074999999999998,0.18737196922302246,,3.0074999999999998,-0.032070081681013107,
3.0099999999999998,0.19516110420227051,,3.0099999999999998,-0.033007662743330002,
3.0125000000000002,0.19756516814231873,,3.0125000000000002,-0.034041404724121094,
3.0150000000000001,0.19903163611888885,,3.0150000000000001,-0.035027068108320236,
3.0175000000000001,0.19958457350730896,,3.0175000000000001,-0.035820405930280685,
3.02,0.19845466315746307,,3.02,-0.036565661430358887,
3.0225,0.1970362663269043,,3.0225,-0.036445461213588715,
3.0249999999999999,0.19518515467643738,,3.0249999999999999,-0.035964649170637131,
3.0274999999999999,0.1930215060710907,,3.0274999999999999,-0.034185647964477539,
3.0299999999999998,0.18794894218444824,,3.0299999999999998,-0.033007662743330002,
3.0325000000000002,0.18496792018413544,,3.0325000000000002,-0.031781595200300217,
3.0350000000000001,0.18157820403575897,,3.0350000000000001,-0.030579566955566406,
3.0375000000000001,0.17765960097312927,,3.0375000000000001,-0.028464000672101974,
3.04,0.16761064529418945,,3.04,-0.027622580528259277,
3.0425,0.16123990714550018,,3.0425,-0.026901364326477051,
3.0449999999999999,0.15388350188732147,,3.0449999999999999,-0.026276310905814171,
3.0474999999999999,0.14554142951965332,,3.0474999999999999,-0.025218527764081955,
3.0499999999999998,0.12638112902641296,,3.0499999999999998,-0.024689635261893272,
3.0525000000000002,0.11592348664999008,,3.0525000000000002,-0.024184783920645714,
3.0550000000000002,0.10517736524343491,,3.0550000000000002,-0.023703973740339279,
3.0575000000000001,0.094407200813293457,,3.0575000000000001,-0.022790431976318359,
3.0600000000000001,0.073612138628959656,,3.0600000000000001,-0.02245386503636837,
3.0625,0.063923798501491547,,3.0625,-0.022165378555655479,
3.0649999999999999,0.054836474359035492,,3.0649999999999999,-0.021949013695120811,
3.0674999999999999,0.046326123178005219,,3.0674999999999999,-0.02170860767364502,
3.0699999999999998,0.031084418296813965,,3.0699999999999998,-0.021636486053466797,
3.0724999999999998,0.024232864379882812,,3.0724999999999998,-0.021612446755170822,
3.0750000000000002,0.017862122505903244,,3.0750000000000002,-0.021612446755170822,
3.0775000000000001,0.011948148719966412,,3.0775000000000001,-0.021780729293823242,
3.0800000000000001,0.0015626351814717054,,3.0800000000000001,-0.021949013695120811,
3.0825,-0.0028608243446797132,,3.0825,-0.022165378555655479,
3.085,-0.0067313513718545437,,3.085,-0.022381743416190147,
3.0874999999999999,-0.010072986595332623,,3.0874999999999999,-0.022574067115783691,
3.0899999999999999,-0.015361905097961426,,3.0899999999999999,-0.02245386503636837,
3.0924999999999998,-0.017477473244071007,,3.0924999999999998,-0.022093256935477257,
3.0950000000000002,-0.019424756988883018,,3.0950000000000002,-0.021516283974051476,
3.0975000000000001,-0.021299919113516808,,3.0975000000000001,-0.019881527870893478,
3.1000000000000001,-0.025098323822021484,,3.1000000000000001,-0.018943946808576584,
3.1025,-0.027045607566833496,,3.1025,-0.018126567825675011,
3.105,-0.028968852013349533,,3.105,-0.017453432083129883,
3.1074999999999999,-0.030723810195922852,,3.1074999999999999,-0.016972621902823448,
3.1099999999999999,-0.033296149224042892,,3.1099999999999999,-0.017164945602416992,
3.1124999999999998,-0.033945243805646896,,3.1124999999999998,-0.017621716484427452,
3.1150000000000002,-0.03413756936788559,,3.1150000000000002,-0.018270811066031456,
3.1175000000000002,-0.033897161483764648,,3.1175000000000002,-0.019737284630537033,
3.1200000000000001,-0.032863419502973557,,3.1200000000000001,-0.020386379212141037,
3.1225000000000001,-0.032454729080200195,,3.1225000000000001,-0.020867189392447472,
3.125,-0.032382607460021973,,3.125,-0.021179717034101486,
3.1274999999999999,-0.032767258584499359,,3.1274999999999999,-0.021179717034101486,
3.1299999999999999,-0.035123229026794434,,3.1299999999999999,-0.02091526985168457,
3.1324999999999998,-0.036950312554836273,,3.1324999999999998,-0.02045850083231926,
3.1349999999999998,-0.038969717919826508,,3.1349999999999998,-0.019881527870893478,
3.1375000000000002,-0.040917001664638519,,3.1375000000000002,-0.018535256385803223,
3.1400000000000001,-0.043729744851589203,,3.1400000000000001,-0.01783808134496212,
3.1425000000000001,-0.044258635491132736,,3.1425000000000001,-0.017188986763358116,
3.145,-0.044090352952480316,,3.145,-0.016636054962873459,
3.1475,-0.043321054428815842,,3.1475,-0.016179284080862999,
3.1499999999999999,-0.040412150323390961,,3.1499999999999999,-0.015506148338317871,
3.1524999999999999,-0.038705270737409592,,3.1524999999999999,-0.015169581398367882,
3.1549999999999998,-0.037094555795192719,,3.1549999999999998,-0.014712810516357422,
3.1575000000000002,-0.035748284310102463,,3.1575000000000002,-0.012981891632080078,
3.1600000000000001,-0.034329891204833984,,3.1600000000000001,-0.011587540619075298,
3.1625000000000001,-0.03430585190653801,,3.1625000000000001,-0.0097845001146197319,
3.165,-0.034642420709133148,,3.165,-0.0076208515092730522,
3.1675,-0.035267472267150879,,3.1675,-0.0028127431869506836,
3.1699999999999999,-0.036830108612775803,,3.1699999999999999,-0.00055293244076892734,
3.1724999999999999,-0.037503242492675781,,3.1724999999999999,0.0013462703209370375,
3.1749999999999998,-0.03796001523733139,,3.1749999999999998,0.0026444594841450453,
3.1775000000000002,-0.038080215454101562,,3.1775000000000002,0.0030291080474853516,
3.1800000000000002,-0.037214756011962891,,3.1800000000000002,0.002091526985168457,
3.1825000000000001,-0.036205053329467773,,3.1825000000000001,0.00062505406094714999,
3.1850000000000001,-0.034882824867963791,,3.1850000000000001,-0.0012020270805805922,
3.1875,-0.033272109925746918,,3.1875,-0.004519621841609478,
3.1899999999999999,-0.029738148674368858,,3.1899999999999999,-0.0053850812837481499,
3.1924999999999999,-0.028031270951032639,,3.1924999999999999,-0.0053129596635699272,
3.1949999999999998,-0.026516716927289963,,3.1949999999999998,-0.0041109323501586914,
3.1974999999999998,-0.025290649384260178,,3.1974999999999998,0.0020194053649902344,
3.2000000000000002,-0.023944377899169922,,3.2000000000000002,0.0068034729920327663,
3.2025000000000001,-0.023800134658813477,,3.2025000000000001,0.01247704029083252,
3.2050000000000001,-0.023968419060111046,,3.2050000000000001,0.018751621246337891,
3.2075,-0.024329027161002159,,3.2075,0.031637351959943771,
3.21,-0.025122364982962608,,3.21,0.037503242492675781,
3.2124999999999999,-0.025314688682556152,,3.2124999999999999,0.042479634284973145,
3.2149999999999999,-0.025194486603140831,,3.2149999999999999,0.046278040856122971,
3.2174999999999998,-0.024689635261893272,,3.2174999999999998,0.049499474465847015,
3.2200000000000002,-0.022598108276724815,,3.2200000000000002,0.048730175942182541,
3.2225000000000001,-0.02108355425298214,,3.2225000000000001,0.046350162476301193,
3.2250000000000001,-0.019424756988883018,,3.2250000000000001,0.042527716606855392,
3.2275,-0.017765959724783897,,3.2275,0.031420987099409103,
3.23,-0.015001296997070312,,3.23,0.024761756882071495,
3.2324999999999999,-0.014111797325313091,,3.2324999999999999,0.017790000885725021,
3.2349999999999999,-0.013655027374625206,,3.2349999999999999,0.010890364646911621,
3.2374999999999998,-0.013606945984065533,,3.2374999999999998,-0.0014905135612934828,
3.2400000000000002,-0.014520486816763878,,3.2400000000000002,-0.0065390272065997124,
3.2425000000000002,-0.015313824638724327,,3.2425000000000002,-0.010673999786376953,
3.2450000000000001,-0.016179284080862999,,3.2450000000000001,-0.013895432464778423,
3.2475000000000001,-0.016972621902823448,,3.2475000000000001,-0.018150608986616135,
3.25,-0.018006365746259689,,3.25,-0.01954495906829834,
3.2524999999999999,-0.018126567825675011,,3.2524999999999999,-0.020722946152091026,
3.2549999999999999,-0.017910202965140343,,3.2549999999999999,-0.021852850914001465,
3.2574999999999998,-0.01738131046295166,,3.2574999999999998,-0.024136703461408615,
3.2599999999999998,-0.015506148338317871,,3.2599999999999998,-0.025146406143903732,
3.2625000000000002,-0.014280080795288086,,3.2625000000000002,-0.025819540023803711,
3.2650000000000001,-0.013005932793021202,,3.2650000000000001,-0.025963783264160156,
3.2675000000000001,-0.011755824089050293,,3.2675000000000001,-0.023944377899169922,
3.27,-0.0099047031253576279,,3.27,-0.02182881161570549,
3.2725,-0.0095200538635253906,,3.2725,-0.019304554909467697,
3.2749999999999999,-0.0095921754837036133,,3.2749999999999999,-0.016972621902823448,
3.2774999999999999,-0.010169148445129395,,3.2774999999999999,-0.015794634819030762,
3.2799999999999998,-0.012597243301570415,,3.2799999999999998,-0.018775662407279015,
3.2825000000000002,-0.014280080795288086,,3.2825000000000002,-0.025146406143903732,
3.2850000000000001,-0.016059082001447678,,3.2850000000000001,-0.03550788015127182,
3.2875000000000001,-0.017765959724783897,,3.2875000000000001,-0.06815493106842041,
3.29,-0.020242135971784592,,3.29,-0.089262530207633972,
3.2925,-0.02074698731303215,,3.2925,-0.11188467592000961,
3.2949999999999999,-0.020674865692853928,,3.2949999999999999,-0.13407409191131592,
3.2974999999999999,-0.020025771111249924,,3.2974999999999999,-0.16768276691436768,
3.2999999999999998,-0.017188986763358116,,3.2999999999999998,-0.1737169474363327,
3.3025000000000002,-0.01521766185760498,,3.3025000000000002,-0.16898095607757568,
3.3050000000000002,-0.013054013252258301,,3.3050000000000002,-0.15107075870037079,
3.3075000000000001,-0.010794202797114849,,3.3075000000000001,-0.11799097061157227,
3.3100000000000001,-0.0063947839662432671,,3.3100000000000001,-0.002259810920804739,
3.3125,-0.0043753786012530327,,3.3125,0.079982876777648926,
3.3149999999999999,-0.0025482974015176296,,3.3149999999999999,0.1762412041425705,
3.3174999999999999,-0.0008895000210031867,,3.3174999999999999,0.39623618125915527,
3.3199999999999998,0.0017549594631418586,,3.3199999999999998,0.50968348979949951,
3.3224999999999998,0.0027165811043232679,,3.3224999999999998,0.61707258224487305,
3.3250000000000002,0.0034377973061054945,,3.3250000000000002,0.71152788400650024,
3.3275000000000001,0.0038224458694458008,,3.3275000000000001,0.83622616529464722,
3.3300000000000001,0.0035820405464619398,,3.3300000000000001,0.85639619827270508,
3.3325,0.0029089055024087429,,3.3325,0.84466439485549927,
3.335,0.0019472837448120117,,3.335,0.80105483531951904,
3.3374999999999999,0.0007692973013035953,,3.3374999999999999,0.63019871711730957,
3.3399999999999999,-0.0014424324035644531,,3.3399999999999999,0.51432335376739502,
3.3424999999999998,-0.0019953649025410414,,3.3424999999999998,0.38820666074752808,
3.3450000000000002,-0.0018030405044555664,,3.3450000000000002,0.26023885607719421,
3.3475000000000001,-0.00057697296142578125,,3.3475000000000001,0.029738148674368858,
3.3500000000000001,0.0056014461442828178,,3.3500000000000001,-0.060678325593471527,
3.3525,0.01060187816619873,,3.3525,-0.12974679470062256,
3.355,0.016636054962873459,,3.355,-0.17655372619628906,
3.3574999999999999,0.023319324478507042,,3.3574999999999999,-0.20970563590526581,
3.3599999999999999,0.036517582833766937,,3.3599999999999999,-0.20285408198833466,
3.3624999999999998,0.041758418083190918,,3.3624999999999998,-0.186121866106987,
3.3650000000000002,0.045316420495510101,,3.3650000000000002,-0.16386032104492188,
3.3675000000000002,0.046782892197370529,,3.3675000000000002,-0.11707743257284164,
3.3700000000000001,0.042671959847211838,,3.3700000000000001,-0.097316108644008636,
3.3725000000000001,0.037334959954023361,,3.3725000000000001,-0.081473395228385925,
3.375,0.030339162796735764,,3.375,-0.069549284875392914,
3.3774999999999999,0.022237500175833702,,3.3774999999999999,-0.054932635277509689,
3.3799999999999999,0.0052167973481118679,,3.3799999999999999,-0.05043705552816391,
3.3824999999999998,-0.0025963783264160156,,3.3824999999999998,-0.046686731278896332,
3.3849999999999998,-0.0094238920137286186,,3.3849999999999998,-0.043152771890163422,
3.3875000000000002,-0.015121500007808208,,3.3875000000000002,-0.035796366631984711,
3.3900000000000001,-0.023199122399091721,,3.3900000000000001,-0.032070081681013107,
3.3925000000000001,-0.025939743965864182,,3.3925000000000001,-0.028536122292280197,
3.395,-0.028103392571210861,,3.395,-0.025338729843497276,
3.3975,-0.029882391914725304,,3.3975,-0.020266175270080566,
3.3999999999999999,-0.031372904777526855,,3.3999999999999999,-0.018246769905090332,
3.4024999999999999,-0.033416353166103363,,3.4024999999999999,-0.016395648941397667,
3.4049999999999998,-0.03368079662322998,,3.4049999999999998,-0.014520486816763878,
3.4075000000000002,-0.033175945281982422,,3.4075000000000002,-0.010241270065307617,
3.4100000000000001,-0.029161175712943077,,3.4100000000000001,-0.0077170133590698242,
3.4125000000000001,-0.025627216324210167,,3.4125000000000001,-0.0049763917922973633,
3.415,-0.021275877952575684,,3.415,-0.0021396081428974867,
3.4175,-0.016515851020812988,,3.4175,0.0033897161483764648,
3.4199999999999999,-0.0083180274814367294,,3.4199999999999999,0.0058418512344360352,
3.4224999999999999,-0.0063947839662432671,,3.4224999999999999,0.0080054998397827148,
3.4249999999999998,-0.0069957971572875977,,3.4249999999999998,0.0098325815051794052,
3.4275000000000002,-0.010866324417293072,,3.4275000000000002,0.012621283531188965,
3.4300000000000002,-0.030122797936201096,,3.4300000000000002,0.013630986213684082,
3.4325000000000001,-0.045652985572814941,,3.4325000000000001,0.014496445655822754,
3.4350000000000001,-0.064500771462917328,,3.4350000000000001,0.015241703018546104,
3.4375,-0.085656449198722839,,3.4375,0.016708176583051682,
3.4399999999999999,-0.12864093482494354,,3.4399999999999999,0.017573636025190353,
3.4424999999999999,-0.14635881781578064,,3.4424999999999999,0.018655460327863693,
3.4449999999999998,-0.15835504233837128,,3.4449999999999998,0.020025771111249924,
3.4474999999999998,-0.16205728054046631,,3.4474999999999998,0.023968419060111046,
3.4500000000000002,-0.13508379459381104,,3.4500000000000002,0.026636919006705284,
3.4525000000000001,-0.10053753852844238,,3.4525000000000001,0.029738148674368858,
3.4550000000000001,-0.050461094826459885,,3.4550000000000001,0.03322402760386467,
3.4575,0.015097459778189659,,3.4575,0.040965080261230469,
3.46,0.186770960688591,,3.46,0.044883690774440765,
3.4624999999999999,0.28670749068260193,,3.4624999999999999,0.048634015023708344,
3.4649999999999999,0.3898654580116272,,3.4649999999999999,0.052119892090559006,
3.4674999999999998,0.49037894606590271,,3.4674999999999998,0.057961743324995041,
3.4700000000000002,0.65784537792205811,,3.4700000000000002,0.060341756790876389,
3.4725000000000001,0.71239334344863892,,3.4725000000000001,0.062481366097927094,
3.4750000000000001,0.74078524112701416,,3.4750000000000001,0.064452692866325378,
3.4775,0.73994380235671997,,3.4775,0.068635746836662292,
3.48,0.64931094646453857,,3.48,0.07106383889913559,
3.4824999999999999,0.56464016437530518,,3.4824999999999999,0.073804460465908051,
3.4849999999999999,0.46071290969848633,,3.4849999999999999,0.076953768730163574,
3.4874999999999998,0.34476539492607117,,3.4874999999999998,0.084214016795158386,
3.4900000000000002,0.10859112441539764,,3.4900000000000002,0.088252827525138855,
3.4925000000000002,0.0034618377685546875,,3.4925000000000002,0.092483960092067719,
3.4950000000000001,-0.085031390190124512,,3.4950000000000001,0.096859335899353027,
3.4975000000000001,-0.15316228568553925,,3.4975000000000001,0.10606686770915985,
3.5,-0.224538654088974,,3.5,0.11092305183410645,
3.5024999999999999,-0.23074111342430115,,3.5024999999999999,0.11606772989034653,
3.5049999999999999,-0.22179803252220154,,3.5049999999999999,0.12147685140371323,
3.5074999999999998,-0.20218095183372498,,3.5074999999999998,0.13328075408935547,
3.5099999999999998,-0.14852246642112732,,3.5099999999999998,0.13960342109203339,
3.5125000000000002,-0.12193362414836884,,3.5125000000000002,0.1461184024810791,
3.5150000000000001,-0.098878741264343262,,3.5150000000000001,0.15268146991729736,
3.5175000000000001,-0.080535814166069031,,3.5175000000000001,0.16561529040336609,
3.52,-0.058154068887233734,,3.52,0.17181774973869324,
3.5225,-0.05260070413351059,,3.5225,0.17777979373931885,
3.5249999999999999,-0.04935523122549057,,3.5249999999999999,0.18357357382774353,
3.5274999999999999,-0.047311782836914062,,3.5274999999999999,0.19487261772155762,
3.5299999999999998,-0.043633580207824707,,3.5299999999999998,0.20057022571563721,
3.5325000000000002,-0.041157405823469162,,3.5325000000000002,0.20633995532989502,
3.5350000000000001,-0.038152337074279785,,3.5350000000000001,0.2122298926115036,
3.5375000000000001,-0.03476262092590332,,3.5375000000000001,0.22400975227355957,
3.54,-0.027718743309378624,,3.54,0.22961120307445526,
3.5425,-0.02444922924041748,,3.5425,0.23475587368011475,
3.5449999999999999,-0.021492242813110352,,3.5449999999999999,0.23920337855815887,
3.5474999999999999,-0.018823742866516113,,3.5474999999999999,0.2452375590801239,
3.5499999999999998,-0.014207959175109863,,3.5499999999999998,0.24648766219615936,
3.5525000000000002,-0.012092391960322857,,3.5525000000000002,0.24641554057598114,
3.5550000000000002,-0.010024905204772949,,3.5550000000000002,0.24499714374542236,
3.5575000000000001,-0.0079814596101641655,,3.5575000000000001,0.23809751868247986,
3.5600000000000001,-0.0039907298050820827,,3.5600000000000001,0.23266434669494629,
3.5625,-0.002091526985168457,,3.5625,0.22598108649253845,
3.5649999999999999,-0.00026444596005603671,,3.5649999999999999,0.21811982989311218,
3.5674999999999999,0.001466472982428968,,3.5674999999999999,0.1990797221660614,
3.5699999999999998,0.0047600269317626953,,3.5699999999999998,0.18811723589897156,
3.5724999999999998,0.0063707432709634304,,3.5724999999999998,0.17636141180992126,
3.5750000000000002,0.0080054998397827148,,3.5750000000000002,0.16395649313926697,
3.5775000000000001,0.0096402568742632866,,3.5775000000000001,0.13796865940093994,
3.5800000000000001,0.013029973022639751,,3.5800000000000001,0.12474636733531952,
3.5825,0.014688770286738873,,3.5825,0.11159618943929672,
3.585,0.01629948616027832,,3.585,0.09871046245098114,
3.5874999999999999,0.017814040184020996,,3.5874999999999999,0.074116989970207214,
3.5899999999999999,0.020602744072675705,,3.5899999999999999,0.062625609338283539,
3.5924999999999998,0.021949013695120811,,3.5924999999999998,0.05168716236948967,
3.5950000000000002,0.023343365639448166,,3.5950000000000002,0.04137377068400383,
3.5975000000000001,0.02490600012242794,,3.5975000000000001,0.022646188735961914,
3.6000000000000001,0.028752487152814865,,3.6000000000000001,0.014207959175109863,
3.6025,0.031180581077933311,,3.6025,0.0064188241958618164,
3.605,0.033969283103942871,,3.605,-0.0007692973013035953,
3.6074999999999999,0.037070512771606445,,3.6074999999999999,-0.013294419273734093,
3.6099999999999999,0.043946109712123871,,3.6099999999999999,-0.018655460327863693,
3.6124999999999998,0.047552190721035004,,3.6124999999999998,-0.023415487259626389,
3.6150000000000002,0.051134228706359863,,3.6150000000000002,-0.027598541229963303,
3.6175000000000002,0.054620109498500824,,3.6175000000000002,-0.034281812608242035,
3.6200000000000001,0.06108701229095459,,3.6200000000000001,-0.036806069314479828,
3.6225000000000001,0.064019963145256042,,3.6225000000000001,-0.038849513977766037,
3.625,0.06678462028503418,,3.625,-0.040412150323390961,
3.6274999999999999,0.069405041635036469,,3.6274999999999999,-0.042383473366498947,
3.6299999999999999,0.074405476450920105,,3.6299999999999999,-0.042936407029628754,
3.6324999999999998,0.076881647109985352,,3.6324999999999998,-0.043321054428815842,
3.6349999999999998,0.079453989863395691,,3.6349999999999998,-0.043609540909528732,
3.6375000000000002,0.082194611430168152,,3.6375000000000002,-0.044234596192836761,
3.6400000000000001,0.088517270982265472,,3.6400000000000001,-0.044691365212202072,
3.6425000000000001,0.092219516634941101,,3.6425000000000001,-0.045244298875331879,
3.645,0.096378527581691742,,3.645,-0.045893393456935883,
3.6475,0.10104238986968994,,3.6475,-0.047263704240322113,
3.6499999999999999,0.11174043267965317,,3.6499999999999999,-0.047840677201747894,
3.6524999999999999,0.1176784485578537,,3.6524999999999999,-0.048225324600934982,
3.6549999999999998,0.12388090789318085,,3.6549999999999998,-0.048393607139587402,
3.6575000000000002,0.13025164604187012,,3.6575000000000002,-0.047816634178161621,
3.6600000000000001,0.14292101562023163,,3.6600000000000001,-0.047119460999965668,
3.6625000000000001,0.14893114566802979,,3.6625000000000001,-0.046205919235944748,
3.665,0.1546047180891037,,3.665,-0.045148134231567383,
3.6675,0.15979747474193573,,3.6675,-0.043080650269985199,
3.6699999999999999,0.16862034797668457,,3.6699999999999999,-0.04228731244802475,
3.6724999999999999,0.1722264289855957,,3.6724999999999999,-0.041734378784894943,
3.6749999999999998,0.17532765865325928,,3.6749999999999998,-0.041493974626064301,
3.6775000000000002,0.17799615859985352,,3.6775000000000002,-0.041974782943725586,
3.6800000000000002,0.18253982067108154,,3.6800000000000002,-0.042599838227033615,
3.6825000000000001,0.18460731208324432,,3.6825000000000001,-0.04336913675069809,
3.6850000000000001,0.18665075302124023,,3.6850000000000001,-0.044234596192836761,
3.6875,0.18871824443340302,,3.6875,-0.045869350433349609,
3.6899999999999999,0.19261281192302704,,3.6899999999999999,-0.046542488038539886,
3.6924999999999999,0.19410333037376404,,3.6924999999999999,-0.047143500298261642,
3.6949999999999998,0.19494473934173584,,3.6949999999999998,-0.047648351639509201,
3.6974999999999998,0.19482454657554626,,3.6974999999999998,-0.048561893403530121,
3.7000000000000002,0.19054532051086426,,3.7000000000000002,-0.048970580101013184,
3.7025000000000001,0.18597762286663055,,3.7025000000000001,-0.049379270523786545,
3.7050000000000001,0.17967900633811951,,3.7050000000000001,-0.049715839326381683,
3.7075,0.17179369926452637,,3.7075,-0.049980282783508301,
3.71,0.1521766185760498,,3.71,-0.049763917922973633,
3.7124999999999999,0.14119009673595428,,3.7124999999999999,-0.049283109605312347,
3.7149999999999999,0.1299872100353241,,3.7149999999999999,-0.048537850379943848,
3.7174999999999998,0.11890451610088348,,3.7174999999999998,-0.046302080154418945,
3.7200000000000002,0.098109446465969086,,3.7200000000000002,-0.044979851692914963,
3.7225000000000001,0.088613435626029968,,3.7225000000000001,-0.04365762323141098,
3.7250000000000001,0.079622268676757812,,3.7250000000000001,-0.042431555688381195,
3.7275,0.070991717278957367,,3.7275,-0.040532350540161133,
3.73,0.054115258157253265,,3.73,-0.039907298982143402,
3.7324999999999999,0.045556824654340744,,3.7324999999999999,-0.039474569261074066,
3.7349999999999999,0.036854147911071777,,3.7349999999999999,-0.03921012207865715,
3.7374999999999998,0.028007229790091515,,3.7374999999999998,-0.038969717919826508,
3.7400000000000002,0.010625919327139854,,3.7400000000000002,-0.038897596299648285,
3.7425000000000002,0.0025002162437886,,3.7425000000000002,-0.038801431655883789,
3.7450000000000001,-0.0049283108673989773,,3.7450000000000001,-0.038657188415527344,
3.7475000000000001,-0.011539459228515625,,3.7475000000000001,-0.038248501718044281,
3.75,-0.021804770454764366,,3.75,-0.03796001523733139,
3.7524999999999999,-0.025507014244794846,,3.7524999999999999,-0.037623446434736252,
3.7549999999999999,-0.028367837890982628,,3.7549999999999999,-0.037262838333845139,
3.7574999999999998,-0.030555527657270432,,3.7574999999999998,-0.036493539810180664,
3.7599999999999998,-0.033608675003051758,,3.7599999999999998,-0.036132931709289551,
3.7625000000000002,-0.03476262092590332,,3.7625000000000002,-0.035772323608398438,
3.7650000000000001,-0.035820405930280685,,3.7650000000000001,-0.035483837127685547,
3.7675000000000001,-0.036854147911071777,,3.7675000000000001,-0.035003028810024261,
3.77,-0.038705270737409592,,3.77,-0.034834742546081543,
3.7725,-0.039450526237487793,,3.7725,-0.034642420709133148,
3.7749999999999999,-0.040051542222499847,,3.7749999999999999,-0.034450095146894455,
3.7774999999999999,-0.040436189621686935,,3.7774999999999999,-0.033969283103942871,
3.7799999999999998,-0.040676593780517578,,3.7799999999999998,-0.033656757324934006,
3.7825000000000002,-0.040652554482221603,,3.7825000000000002,-0.033296149224042892,
3.7850000000000001,-0.040580432862043381,,3.7850000000000001,-0.032911501824855804,
3.7875000000000001,-0.040604472160339355,,3.7875000000000001,-0.032070081681013107,
3.79,-0.041037201881408691,,3.79,-0.031565230339765549,
3.7925,-0.041493974626064301,,3.7925,-0.030988257378339767,
3.7949999999999999,-0.042070947587490082,,3.7949999999999999,-0.030267041176557541,
3.7974999999999999,-0.042671959847211838,,3.7974999999999999,-0.028247635811567307,
3.7999999999999998,-0.04365762323141098,,3.7999999999999998,-0.026949446648359299,
3.8025000000000002,-0.043873988091945648,,3.8025000000000002,-0.025458931922912598,
3.8050000000000002,-0.043849945068359375,,3.8050000000000002,-0.023920338600873947,
3.8075000000000001,-0.043561458587646484,,3.8075000000000001,-0.021275877952575684,
3.8100000000000001,-0.042359434068202972,,3.8100000000000001,-0.020530622452497482,
3.8125,-0.041566096246242523,,3.8125,-0.020362338051199913,
3.8149999999999999,-0.040724676102399826,,3.8149999999999999,-0.020843148231506348,
3.8174999999999999,-0.039955377578735352,,3.8174999999999999,-0.023655891418457031,
3.8199999999999998,-0.038825474679470062,,3.8199999999999998,-0.025651257485151291,
3.8224999999999998,-0.038512945175170898,,3.8224999999999998,-0.027670662850141525,
3.8250000000000002,-0.038440823554992676,,3.8250000000000002,-0.029425621032714844,
3.8275000000000001,-0.038561027497053146,,3.8275000000000001,-0.030916135758161545,
3.8300000000000001,-0.039426486939191818,,3.8300000000000001,-0.03031512163579464,
3.8325,-0.040051542222499847,,3.8325,-0.028800567612051964,
3.835,-0.040772758424282074,,3.835,-0.026540756225585938,
3.8374999999999999,-0.041469931602478027,,3.8374999999999999,-0.020819108933210373,
3.8399999999999999,-0.04245559498667717,,3.8399999999999999,-0.018102526664733887,
3.8424999999999998,-0.042527716606855392,,3.8424999999999998,-0.015890797600150108,
3.8450000000000002,-0.042215190827846527,,3.8450000000000002,-0.014472405426204205,
3.8475000000000001,-0.041445892304182053,,3.8475000000000001,-0.014232000336050987,
3.8500000000000001,-0.038705270737409592,,3.8500000000000001,-0.015313824638724327,
3.8525,-0.036878190934658051,,3.8525,-0.016900500282645226,
3.855,-0.034930907189846039,,3.855,-0.018727581948041916,
3.8574999999999999,-0.03305574506521225,,3.8574999999999999,-0.022141337394714355,
3.8599999999999999,-0.030170878395438194,,3.8599999999999999,-0.023343365639448166,
3.8624999999999998,-0.029425621032714844,,3.8624999999999998,-0.024088621139526367,
3.8650000000000002,-0.029185216873884201,,3.8650000000000002,-0.024353068321943283,
3.8675000000000002,-0.029473703354597092,,3.8675000000000002,-0.023872256278991699,
3.8700000000000001,-0.031012296676635742,,3.8700000000000001,-0.023295283317565918,
3.8725000000000001,-0.031949877738952637,,3.8725000000000001,-0.022622149437665939,
3.875,-0.032743215560913086,,3.875,-0.021949013695120811,
3.8774999999999999,-0.033272109925746918,,3.8774999999999999,-0.02062678337097168,
3.8799999999999999,-0.033103823661804199,,3.8799999999999999,-0.019953649491071701,
3.8824999999999998,-0.032382607460021973,,3.8824999999999998,-0.019280513748526573,
3.8849999999999998,-0.031324826180934906,,3.8849999999999998,-0.018607378005981445,
3.8875000000000002,-0.030050676316022873,,3.8875000000000002,-0.01738131046295166,
3.8900000000000001,-0.027310054749250412,,3.8900000000000001,-0.016948580741882324,
3.8925000000000001,-0.026059946045279503,,3.8925000000000001,-0.016708176583051682,
3.895,-0.024954080581665039,,3.895,-0.016708176583051682,
3.8975,-0.024040540680289268,,3.8975,-0.017261108383536339,
3.8999999999999999,-0.022598108276724815,,3.8999999999999999,-0.017669796943664551,
3.9024999999999999,-0.021973054856061935,,3.9024999999999999,-0.018006365746259689,
3.9049999999999998,-0.021323960274457932,,3.9049999999999998,-0.018150608986616135,
3.9075000000000002,-0.020674865692853928,,3.9075000000000002,-0.017477473244071007,
3.9100000000000001,-0.01937667652964592,,3.9100000000000001,-0.016636054962873459,
3.9125000000000001,-0.018847784027457237,,3.9125000000000001,-0.015530189499258995,
3.915,-0.018487175926566124,,3.915,-0.01430412195622921,
3.9175,-0.018342932686209679,,3.9175,-0.012284716591238976,
3.9199999999999999,-0.018895864486694336,,3.9199999999999999,-0.01185198687016964,
3.9224999999999999,-0.019569000229239464,,3.9224999999999999,-0.011972188949584961,
