Data Set 1:Time(s),Data Set 1:EKG(mV),Data Set 1:Heart Rate(bpm)
0,0.26759526133537292,85.714286804199219
0.0025000000000000001,0.2661287784576416,
0.0050000000000000001,0.26331603527069092,
0.0074999999999999997,0.25862812995910645,
0.01,0.25168043375015259,
0.012500000000000001,0.24237672984600067,
0.014999999999999999,0.20355126261711121,
0.017500000000000002,0.18955966830253601,
0.02,0.17662584781646729,
0.022499999999999999,0.15736937522888184,
0.025000000000000001,0.15191218256950378,
0.0275,0.14921963214874268,
0.029999999999999999,0.14883498847484589,
0.032500000000000001,0.15169581770896912,
0.035000000000000003,0.15313825011253357,
0.037499999999999999,0.15337865054607391,
0.040000000000000001,0.15179197490215302,
0.042500000000000003,0.14140646159648895,
0.044999999999999998,0.13229510188102722,
0.047500000000000001,0.12061139196157455,
0.050000000000000003,0.10645151138305664,
0.052499999999999998,0.071424447000026703,
0.055,0.050917863845825195,
0.057500000000000002,0.028800567612051964,
0.059999999999999998,0.0055293245241045952,
0.0625,-0.041518013924360275,
0.065000000000000002,-0.063274703919887543,
0.067500000000000004,-0.082218647003173828,
0.070000000000000007,-0.097147822380065918,
0.072499999999999995,-0.11111538112163544,
0.074999999999999997,-0.10945658385753632,
0.077499999999999999,-0.10260502994060516,
0.080000000000000002,-0.091858908534049988,
0.082500000000000004,-0.066520176827907562,
0.085000000000000006,-0.056519310921430588,
0.087499999999999994,-0.051062107086181641,
0.089999999999999997,-0.051591001451015472,
0.092499999999999999,-0.071448490023612976,
0.095000000000000001,-0.08873363584280014,
0.097500000000000003,-0.10808627307415009,
0.10000000000000001,-0.1268138587474823,
0.10249999999999999,-0.15232086181640625,
0.105,-0.15575866401195526,
0.1075,-0.15260934829711914,
0.11,-0.14405092597007751,
0.1125,-0.12068351358175278,
0.115,-0.11195679754018784,
0.11749999999999999,-0.10902385413646698,
0.12,-0.11371175944805145,
0.1225,-0.14647901058197021,
0.125,-0.17109653353691101,
0.1275,-0.19669970870018005,
0.13,-0.21876892447471619,
0.13250000000000001,-0.23331344127655029,
0.13500000000000001,-0.21739861369132996,
0.13750000000000001,-0.18205901980400085,
0.14000000000000001,-0.12602052092552185,
0.14249999999999999,0.045701067894697189,
0.14499999999999999,0.15635967254638672,
0.14749999999999999,0.27793270349502563,
0.14999999999999999,0.40479463338851929,
0.1525,0.64832532405853271,
0.155,0.75131499767303467,
0.1575,0.83300471305847168,
0.16,0.88788926601409912,
0.16250000000000001,0.91195386648178101,
0.16500000000000001,0.86118024587631226,
0.16750000000000001,0.78893840312957764,
0.17000000000000001,0.69109344482421875,
0.17249999999999999,0.44676941633224487,
0.17499999999999999,0.31711876392364502,
0.17749999999999999,0.19383887946605682,
0.17999999999999999,0.084310173988342285,
0.1825,-0.073107287287712097,
0.185,-0.11647641658782959,
0.1875,-0.13710319995880127,
0.19,-0.13806483149528503,
0.1925,-0.099071070551872253,
0.19500000000000001,-0.069068476557731628,
0.19750000000000001,-0.038056176155805588,
0.20000000000000001,-0.0094238920137286186,
0.20250000000000001,0.033272109925746918,
0.20499999999999999,0.046446323394775391,
0.20749999999999999,0.055028796195983887,
0.20999999999999999,0.060269635170698166,
0.21249999999999999,0.066207647323608398,
0.215,0.069116555154323578,
0.2175,0.072890922427177429,
0.22,0.077699027955532074,
0.2225,0.089695259928703308,
0.22500000000000001,0.096138119697570801,
0.22750000000000001,0.10226845741271973,
0.23000000000000001,0.10772566497325897,
0.23250000000000001,0.11577924340963364,
0.23499999999999999,0.11830350011587143,
0.23749999999999999,0.11993825435638428,
0.23999999999999999,0.12092392146587372,
0.24249999999999999,0.12190958112478256,
0.245,0.12239038944244385,
0.2475,0.12313564866781235,
0.25,0.12421747297048569,
0.2525,0.12758314609527588,
0.255,0.12972275912761688,
0.25750000000000001,0.13195852935314178,
0.26000000000000001,0.13414621353149414,
0.26250000000000001,0.1377282589673996,
0.26500000000000001,0.13888220489025116,
0.26750000000000002,0.13960342109203339,
0.27000000000000002,0.13993999361991882,
0.27250000000000002,0.1399640291929245,
0.27500000000000002,0.13998806476593018,
0.27750000000000002,0.14025251567363739,
0.28000000000000003,0.14085352420806885,
0.28249999999999997,0.14328162372112274,
0.28499999999999998,0.14508466422557831,
0.28749999999999998,0.14710406959056854,
0.28999999999999998,0.14926771819591522,
0.29249999999999998,0.15347480773925781,
0.29499999999999998,0.1553499698638916,
0.29749999999999999,0.15700876712799072,
0.29999999999999999,0.1585233211517334,
0.30249999999999999,0.16133606433868408,
0.30499999999999999,0.1628987044095993,
0.3075,0.16472578048706055,
0.31,0.1669134795665741,
0.3125,0.17265915870666504,
0.315,0.17628929018974304,
0.3175,0.18042425811290741,
0.32000000000000001,0.18496792018413544,
0.32250000000000001,0.19513706862926483,
0.32500000000000001,0.20057022571563721,
0.32750000000000001,0.20614764094352722,
0.33000000000000002,0.21182119846343994,
0.33250000000000002,0.22326450049877167,
0.33500000000000002,0.22903423011302948,
0.33750000000000002,0.23482799530029297,
0.34000000000000002,0.24064581096172333,
0.34250000000000003,0.25249779224395752,
0.34499999999999997,0.25850793719291687,
0.34749999999999998,0.26456615328788757,
0.34999999999999998,0.27062436938285828,
0.35249999999999998,0.28247636556625366,
0.35499999999999998,0.28812587261199951,
0.35749999999999998,0.29355904459953308,
0.35999999999999999,0.29865562915802002,
0.36249999999999999,0.30771893262863159,
0.36499999999999999,0.3116375207901001,
0.36749999999999999,0.31509935855865479,
0.37,0.31808039546012878,
0.3725,0.32250386476516724,
0.375,0.3238501250743866,
0.3775,0.32457134127616882,
0.38,0.32459539175033569,
0.38250000000000001,0.32216727733612061,
0.38500000000000001,0.31961899995803833,
0.38750000000000001,0.31606099009513855,
0.39000000000000001,0.31146925687789917,
0.39250000000000002,0.29911240935325623,
0.39500000000000002,0.29134732484817505,
0.39750000000000002,0.28257250785827637,
0.40000000000000002,0.27286013960838318,
0.40250000000000002,0.25093516707420349,
0.40500000000000003,0.23898701369762421,
0.40749999999999997,0.22658209502696991,
0.40999999999999998,0.21388868987560272,
0.41249999999999998,0.18852591514587402,
0.41499999999999998,0.17626523971557617,
0.41749999999999998,0.16453346610069275,
0.41999999999999998,0.15347480773925781,
0.42249999999999999,0.13383369147777557,
0.42499999999999999,0.12529930472373962,
0.42749999999999999,0.11760632693767548,
0.42999999999999999,0.11065860837697983,
0.4325,0.098590254783630371,
0.435,0.093277297914028168,
0.4375,0.088300906121730804,
0.44,0.083685122430324554,
0.4425,0.075367093086242676,
0.44500000000000001,0.071736976504325867,
0.44750000000000001,0.068515539169311523,
0.45000000000000001,0.065750882029533386,
0.45250000000000001,0.061591863632202148,
0.45500000000000002,0.060125391930341721,
0.45750000000000002,0.058947406709194183,
0.46000000000000002,0.057961743324995041,
0.46250000000000002,0.056014459580183029,
0.46500000000000002,0.054836474359035492,
0.46750000000000003,0.053394041955471039,
0.46999999999999997,0.051711201667785645,
0.47249999999999998,0.047648351639509201,
0.47499999999999998,0.045436620712280273,
0.47749999999999998,0.043272972106933594,
0.47999999999999998,0.041229527443647385,
0.48249999999999998,0.037887893617153168,
0.48499999999999999,0.036661826074123383,
0.48749999999999999,0.035700201988220215,
0.48999999999999999,0.034930907189846039,
0.49249999999999999,0.033656757324934006,
0.495,0.032983623445034027,
0.4975,0.032214324921369553,
0.5,0.031300783157348633,
0.50249999999999995,0.02906501293182373,
0.505,0.027838945388793945,
0.50749999999999995,0.026588838547468185,
0.51000000000000001,0.025386810302734375,
0.51249999999999996,0.023247202858328819,
0.51500000000000001,0.022309621796011925,
0.51749999999999996,0.021468203514814377,
0.52000000000000002,0.020650824531912804,
0.52249999999999996,0.019040107727050781,
0.52500000000000002,0.018222730606794357,
0.52749999999999997,0.01738131046295166,
0.53000000000000003,0.016587972640991211,
0.53249999999999997,0.015241703018546104,
0.53500000000000003,0.014808973297476768,
0.53749999999999998,0.01461664866656065,
0.54000000000000004,0.014664730057120323,
0.54249999999999998,0.015482108108699322,
0.54500000000000004,0.016227364540100098,
0.54749999999999999,0.017068784683942795,
0.55000000000000004,0.018006365746259689,
0.55249999999999999,0.019881527870893478,
0.55500000000000005,0.020771026611328125,
0.5575,0.021636486053466797,
0.56000000000000005,0.02245386503636837,
0.5625,0.02416074275970459,
0.56499999999999995,0.02507428452372551,
0.5675,0.026083987206220627,
0.56999999999999995,0.027189850807189941,
0.57250000000000001,0.029617946594953537,
0.57499999999999996,0.03094017505645752,
0.57750000000000001,0.032262407243251801,
0.57999999999999996,0.033584635704755783,
0.58250000000000002,0.036108892410993576,
0.58499999999999996,0.037238799035549164,
0.58750000000000002,0.038272541016340256,
0.58999999999999997,0.03921012207865715,
0.59250000000000003,0.040700636804103851,
0.59499999999999997,0.041253566741943359,
0.59750000000000003,0.041710339486598969,
0.59999999999999998,0.042070947587490082,
0.60250000000000004,0.04257579892873764,
0.60499999999999998,0.04274408146739006,
0.60750000000000004,0.042888324707746506,
0.60999999999999999,0.043032567948102951,
0.61250000000000004,0.043272972106933594,
0.61499999999999999,0.043417215347290039,
0.61750000000000005,0.043561458587646484,
0.62,0.04370570182800293,
0.62250000000000005,0.043970149010419846,
0.625,0.044090352952480316,
0.62749999999999995,0.044138431549072266,
0.63,0.044114392250776291,
0.63249999999999995,0.043753784149885178,
0.63500000000000001,0.043345093727111816,
0.63749999999999996,0.04274408146739006,
0.64000000000000001,0.041974782943725586,
0.64249999999999996,0.039907298982143402,
0.64500000000000002,0.038681231439113617,
0.64749999999999996,0.037383042275905609,
0.65000000000000002,0.036108892410993576,
0.65249999999999997,0.033897161483764648,
0.65500000000000003,0.03305574506521225,
0.65749999999999997,0.032454729080200195,
0.66000000000000003,0.032046042382717133,
0.66249999999999998,0.031685434281826019,
0.66500000000000004,0.031541191041469574,
0.66749999999999998,0.031324826180934906,
0.67000000000000004,0.030916135758161545,
0.67249999999999999,0.029305418953299522,
0.67500000000000004,0.028079351410269737,
0.67749999999999999,0.02661287784576416,
0.68000000000000005,0.025002162903547287,
0.6825,0.021900933235883713,
0.68500000000000005,0.020698904991149902,
0.6875,0.019929608330130577,
0.68999999999999995,0.019689202308654785,
0.6925,0.021107595413923264,
0.69499999999999995,0.022742351517081261,
0.69750000000000001,0.024881958961486816,
0.69999999999999996,0.027358135208487511,
0.70250000000000001,0.032526850700378418,
0.70499999999999996,0.03476262092590332,
0.70750000000000002,0.036421418190002441,
0.70999999999999996,0.037358999252319336,
0.71250000000000002,0.036541622132062912,
0.71499999999999997,0.03476262092590332,
0.71750000000000003,0.032238364219665527,
0.71999999999999997,0.029185216873884201,
0.72250000000000003,0.022574067115783691,
0.72499999999999998,0.019713243469595909,
0.72750000000000004,0.017573636025190353,
0.72999999999999998,0.01646777056157589,
0.73250000000000004,0.018054446205496788,
0.73499999999999999,0.020867189392447472,
0.73750000000000004,0.024930041283369064,
0.73999999999999999,0.030050676316022873,
0.74250000000000005,0.04228731244802475,
0.745,0.048658054322004318,
0.74750000000000005,0.054668188095092773,
0.75,0.059957109391689301,
0.75249999999999995,0.06707310676574707,
0.755,0.068467460572719574,
0.75749999999999995,0.068251095712184906,
0.76000000000000001,0.066472098231315613,
0.76249999999999996,0.058658920228481293,
0.76500000000000001,0.053081512451171875,
0.76749999999999996,0.046710770577192307,
0.77000000000000002,0.039859216660261154,
0.77249999999999996,0.025939743965864182,
0.77500000000000002,0.019352635368704796,
0.77749999999999997,0.013246337883174419,
0.78000000000000003,0.0077410540543496609,
0.78249999999999997,-0.0013943513622507453,
0.78500000000000003,-0.0050965948030352592,
0.78749999999999998,-0.0083661079406738281,
0.79000000000000004,-0.011275013908743858,
0.79249999999999998,-0.016395648941397667,
0.79500000000000004,-0.018583338707685471,
0.79749999999999999,-0.020410418510437012,
0.80000000000000004,-0.021732648834586143,
0.80249999999999999,-0.021973054856061935,
0.80500000000000005,-0.020602744072675705,
0.8075,-0.018246769905090332,
0.81000000000000005,-0.015097459778189659,
0.8125,-0.0085343923419713974,
0.81499999999999995,-0.0066351890563964844,
0.8175,-0.0069957971572875977,
0.81999999999999995,-0.010577837936580181,
0.82250000000000001,-0.030723810195922852,
0.82499999999999996,-0.048032999038696289,
0.82750000000000001,-0.069861814379692078,
0.82999999999999996,-0.095296703279018402,
0.83250000000000002,-0.14998893439769745,
0.83499999999999996,-0.17448624968528748,
0.83750000000000002,-0.19318978488445282,
0.83999999999999997,-0.20292620360851288,
0.84250000000000003,-0.18335720896720886,
0.84499999999999997,-0.14888307452201843,
0.84750000000000003,-0.095705389976501465,
0.84999999999999998,-0.023343365639448166,
0.85250000000000004,0.17410159111022949,
0.85499999999999998,0.29310226440429688,
0.85750000000000004,0.41912278532981873,
0.85999999999999999,0.54560005664825439,
0.86250000000000004,0.77011466026306152,
0.86499999999999999,0.85293436050415039,
0.86750000000000005,0.90726596117019653,
0.87,0.92834949493408203,
0.87250000000000005,0.86370450258255005,
0.875,0.78112524747848511,
0.87749999999999995,0.67150038480758667,
0.88,0.54240268468856812,
0.88249999999999995,0.26168128848075867,
0.88500000000000001,0.12828032672405243,
0.88749999999999996,0.0099768247455358505,
0.89000000000000001,-0.087651811540126801,
0.89249999999999996,-0.21057109534740448,
0.89500000000000002,-0.23663103580474854,
0.89749999999999996,-0.24292966723442078,
0.90000000000000002,-0.23389041423797607,
0.90249999999999997,-0.18980006873607635,
0.90500000000000003,-0.16378819942474365,
0.90749999999999997,-0.13969957828521729,
0.91000000000000003,-0.11957764625549316,
0.91249999999999998,-0.093782149255275726,
0.91500000000000004,-0.087267160415649414,
0.91749999999999998,-0.083637043833732605,
0.92000000000000004,-0.081641674041748047,
0.92249999999999999,-0.078660652041435242,
0.92500000000000004,-0.076424881815910339,
0.92749999999999999,-0.073491930961608887,
0.93000000000000005,-0.06998201459646225,
0.9325,-0.062553487718105316,
0.93500000000000005,-0.059308014810085297,
0.9375,-0.056687593460083008,
0.93999999999999995,-0.054788392037153244,
0.9425,-0.052744947373867035,
0.94499999999999995,-0.052288174629211426,
0.94750000000000001,-0.051879487931728363,
0.94999999999999996,-0.051326554268598557,
0.95250000000000001,-0.04935523122549057,
0.95499999999999996,-0.047840677201747894,
0.95750000000000002,-0.046037636697292328,
0.95999999999999996,-0.044042270630598068,
0.96250000000000002,-0.039979420602321625,
0.96499999999999997,-0.038152337074279785,
0.96750000000000003,-0.036517582833766937,
0.96999999999999997,-0.035147272050380707,
0.97250000000000003,-0.032959580421447754,
0.97499999999999998,-0.032021999359130859,
0.97750000000000004,-0.03106037899851799,
0.97999999999999998,-0.030026635155081749,
0.98250000000000004,-0.027550458908081055,
0.98499999999999999,-0.026083987206220627,
0.98750000000000004,-0.024521350860595703,
0.98999999999999999,-0.022886594757437706,
0.99250000000000005,-0.019641121849417686,
0.995,-0.018054446205496788,
0.99750000000000005,-0.016515851020812988,
1,-0.014953216537833214,85.714286804199219
1.0024999999999999,-0.011635622009634972,
1.0049999999999999,-0.0097604598850011826,
1.0075000000000001,-0.0076689324341714382,
1.01,-0.0053610405884683132,
1.0125,0,
1.0149999999999999,0.0029810271225869656,
1.0175000000000001,0.0061303377151489258,
1.02,0.0093998517841100693,
1.0225,0.016155242919921875,
1.0249999999999999,0.019641121849417686,
1.0275000000000001,0.023223161697387695,
1.03,0.026925405487418175,
1.0325,0.034930907189846039,
1.0349999999999999,0.039330326020717621,
1.0375000000000001,0.044090352952480316,
1.04,0.049210987985134125,
1.0425,0.060534082353115082,
1.0449999999999999,0.066664420068264008,
1.0475000000000001,0.073011122643947601,
1.05,0.079478025436401367,
1.0525,0.092459917068481445,
1.0549999999999999,0.098806619644165039,
1.0575000000000001,0.10496100038290024,
1.0600000000000001,0.11092305183410645,
1.0625,0.12205382436513901,
1.0649999999999999,0.12724658846855164,
1.0674999999999999,0.13219892978668213,
1.0700000000000001,0.1368868350982666,
1.0725,0.1454693078994751,
1.075,0.14924368262290955,
1.0774999999999999,0.15263339877128601,
1.0800000000000001,0.15551826357841492,
1.0825,0.15950898826122284,
1.085,0.16042253375053406,
1.0874999999999999,0.16047060489654541,
1.0900000000000001,0.15958110988140106,
1.0925,0.15472492575645447,
1.095,0.15066206455230713,
1.0974999999999999,0.14544527232646942,
1.1000000000000001,0.1391226053237915,
1.1025,0.12325584888458252,
1.105,0.1138560026884079,
1.1074999999999999,0.10363876819610596,
1.1100000000000001,0.092748403549194336,
1.1125,0.069597363471984863,
1.115,0.057697296142578125,
1.1174999999999999,0.045797228813171387,
1.1200000000000001,0.034065447747707367,
1.1225000000000001,0.011611580848693848,
1.125,0.0010818243026733398,
1.1274999999999999,-0.0088950004428625107,
1.1299999999999999,-0.018318891525268555,
1.1325000000000001,-0.035483837127685547,
1.135,-0.043248932808637619,
1.1375,-0.050485134124755859,
1.1399999999999999,-0.057240527123212814,
1.1425000000000001,-0.069212719798088074,
1.145,-0.074429512023925781,
1.1475,-0.079141460359096527,
1.1499999999999999,-0.083348557353019714,
1.1525000000000001,-0.090176068246364594,
1.155,-0.092892646789550781,
1.1575,-0.095152460038661957,
1.1599999999999999,-0.097027622163295746,
1.1625000000000001,-0.099936529994010925,
1.165,-0.10104238986968994,
1.1675,-0.10202805697917938,
1.1699999999999999,-0.10291755199432373,
1.1725000000000001,-0.10450422763824463,
1.175,-0.10517736524343491,
1.1775,-0.10577838122844696,
1.1799999999999999,-0.10628323256969452,
1.1825000000000001,-0.10698040574789047,
1.1850000000000001,-0.10714869201183319,
1.1875,-0.10724484920501709,
1.1899999999999999,-0.10724484920501709,
1.1924999999999999,-0.10710060596466064,
1.1950000000000001,-0.10698040574789047,
1.1975,-0.1068602055311203,
1.2,-0.10671596229076385,
1.2024999999999999,-0.10637938976287842,
1.2050000000000001,-0.10616302490234375,
1.2075,-0.10594666004180908,
1.21,-0.10573029518127441,
1.2124999999999999,-0.10539373010396957,
1.2150000000000001,-0.10534565150737762,
1.2175,-0.10541777312755585,
1.22,-0.10563413798809052,
1.2224999999999999,-0.10640343278646469,
1.2250000000000001,-0.10693232715129852,
1.2275,-0.10748525708913803,
1.23,-0.10803818702697754,
1.2324999999999999,-0.10885556787252426,
1.2350000000000001,-0.10904788970947266,
1.2375,-0.10904788970947266,
1.24,-0.10890364646911621,
1.2424999999999999,-0.10818243026733398,
1.2450000000000001,-0.1077016219496727,
1.2475000000000001,-0.10719677060842514,
1.25,-0.10673999786376953,
1.2524999999999999,-0.10594666004180908,
1.2549999999999999,-0.10565817356109619,
1.2575000000000001,-0.10541777312755585,
1.26,-0.10524948686361313,
1.2625,-0.10496100038290024,
1.2649999999999999,-0.10481675714254379,
1.2675000000000001,-0.10467251390218735,
1.27,-0.10450422763824463,
1.2725,-0.10414361953735352,
1.2749999999999999,-0.10395129770040512,
1.2775000000000001,-0.10371088981628418,
1.28,-0.10344644635915756,
1.2825,-0.10279735177755356,
1.2849999999999999,-0.10243674367666245,
1.2875000000000001,-0.10205209255218506,
1.29,-0.10166744887828827,
1.2925,-0.10099431127309799,
1.2949999999999999,-0.10072986781597137,
1.2975000000000001,-0.10048945993185043,
1.3,-0.10027309507131577,
1.3025,-0.099768243730068207,
1.3049999999999999,-0.099431678652763367,
1.3075000000000001,-0.098998948931694031,
1.3100000000000001,-0.098446011543273926,
1.3125,-0.096979543566703796,
1.3149999999999999,-0.096090041100978851,
1.3174999999999999,-0.095104381442070007,
1.3200000000000001,-0.09409467875957489,
1.3225,-0.092099308967590332,
1.325,-0.091161727905273438,
1.3274999999999999,-0.090296268463134766,
1.3300000000000001,-0.089551016688346863,
1.3325,-0.088421106338500977,
1.335,-0.088084541261196136,
1.3374999999999999,-0.087892219424247742,
1.3400000000000001,-0.087820097804069519,
1.3425,-0.087940298020839691,
1.345,-0.088084541261196136,
1.3474999999999999,-0.088228784501552582,
1.3500000000000001,-0.088373027741909027,
1.3525,-0.088517270982265472,
1.355,-0.088541314005851746,
1.3574999999999999,-0.088517270982265472,
1.3600000000000001,-0.088517270982265472,
1.3625,-0.088565349578857422,
1.365,-0.088637471199035645,
1.3674999999999999,-0.08873363584280014,
1.3700000000000001,-0.088829800486564636,
1.3725000000000001,-0.088925957679748535,
1.375,-0.088901922106742859,
1.3774999999999999,-0.08878171443939209,
1.3799999999999999,-0.088589392602443695,
1.3825000000000001,-0.087964341044425964,
1.385,-0.087579689919948578,
1.3875,-0.087146960198879242,
1.3899999999999999,-0.086690187454223633,
1.3925000000000001,-0.08553624153137207,
1.395,-0.084742903709411621,
1.3975,-0.083757244050502777,
1.3999999999999999,-0.082507133483886719,
1.4025000000000001,-0.079189538955688477,
1.405,-0.077146098017692566,
1.4075,-0.074982449412345886,
1.4099999999999999,-0.072794757783412933,
1.4125000000000001,-0.068948268890380859,
1.415,-0.067553922533988953,
1.4175,-0.066664420068264008,
1.4199999999999999,-0.066375933587551117,
1.4225000000000001,-0.067529879510402679,
1.425,-0.06885211169719696,
1.4275,-0.070510908961296082,
1.4299999999999999,-0.072289906442165375,
1.4325000000000001,-0.075415179133415222,
1.4350000000000001,-0.076256595551967621,
1.4375,-0.076352760195732117,
1.4399999999999999,-0.075511336326599121,
1.4424999999999999,-0.070462822914123535,
1.4450000000000001,-0.066231690347194672,
1.4475,-0.060942769050598145,
1.45,-0.054812431335449219,
1.4524999999999999,-0.041061244904994965,
1.4550000000000001,-0.034185647964477539,
1.4575,-0.027862986549735069,
1.46,-0.022501945495605469,
1.4624999999999999,-0.015962919220328331,
1.4650000000000001,-0.015265743248164654,
1.4675,-0.016395648941397667,
1.47,-0.019280513748526573,
1.4724999999999999,-0.029545824974775314,
1.4750000000000001,-0.036277174949645996,
1.4775,-0.043561458587646484,
1.48,-0.051014028489589691,
1.4824999999999999,-0.065101787447929382,
1.4850000000000001,-0.071232125163078308,
1.4875,-0.076593160629272461,
1.49,-0.081136822700500488,
1.4924999999999999,-0.088132619857788086,
1.4950000000000001,-0.090825162827968597,
1.4975000000000001,-0.093157097697257996,
1.5,-0.095272660255432129,
1.5024999999999999,-0.098926827311515808,
1.5049999999999999,-0.10032117366790771,
1.5075000000000001,-0.10123471915721893,
1.51,-0.10147511959075928,
1.5125,-0.099167227745056152,
1.5149999999999999,-0.096498727798461914,
1.5175000000000001,-0.09301285445690155,
1.52,-0.089094243943691254,
1.5225,-0.082723498344421387,
1.5249999999999999,-0.082098446786403656,
1.5275000000000001,-0.084526538848876953,
1.53,-0.090969406068325043,
1.5325,-0.1183275431394577,
1.5349999999999999,-0.13941109180450439,
1.5375000000000001,-0.16460558772087097,
1.54,-0.19251665472984314,
1.5425,-0.24802625179290771,
1.5449999999999999,-0.27009546756744385,
1.5475000000000001,-0.28413516283035278,
1.55,-0.28685173392295837,
1.5525,-0.24629533290863037,
1.5549999999999999,-0.19840657711029053,
1.5575000000000001,-0.13054013252258301,
1.5600000000000001,-0.042984485626220703,
1.5625,0.18241962790489197,
1.5649999999999999,0.31192600727081299,
1.5674999999999999,0.44458171725273132,
1.5700000000000001,0.57293415069580078,
1.5725,0.78456306457519531,
1.575,0.85269391536712646,
1.5774999999999999,0.88769698143005371,
1.5800000000000001,0.88611030578613281,
1.5825,0.77307164669036865,
1.585,0.66859149932861328,
1.5874999999999999,0.54098427295684814,
1.5900000000000001,0.39914509654045105,
1.5925,0.111427903175354,
1.595,-0.016587972640991211,
1.5974999999999999,-0.12465020269155502,
1.6000000000000001,-0.20867189764976501,
1.6025,-0.3006269633769989,
1.605,-0.31240683794021606,
1.6074999999999999,-0.30675730109214783,
1.6100000000000001,-0.28889518976211548,
1.6125,-0.23670315742492676,
1.615,-0.21071533858776093,
1.6174999999999999,-0.18847784399986267,
1.6200000000000001,-0.17121672630310059,
1.6225000000000001,-0.15128712356090546,
1.625,-0.14676749706268311,
1.6274999999999999,-0.14414708316326141,
1.6299999999999999,-0.1421997994184494,
1.6325000000000001,-0.13707916438579559,
1.635,-0.13316056132316589,
1.6375,-0.12847265601158142,
1.6399999999999999,-0.12332797050476074,
1.6425000000000001,-0.11332710832357407,
1.645,-0.10916809737682343,
1.6475,-0.10582645982503891,
1.6499999999999999,-0.10330220311880112,
1.6525000000000001,-0.10020097345113754,
1.655,-0.099239349365234375,
1.6575,-0.098397932946681976,
1.6599999999999999,-0.097484394907951355,
1.6625000000000001,-0.095128417015075684,
1.665,-0.093613862991333008,
1.6675,-0.091858908534049988,
1.6699999999999999,-0.089935660362243652,
1.6725000000000001,-0.085632406175136566,
1.675,-0.083348557353019714,
1.6775,-0.081016622483730316,
1.6799999999999999,-0.078684687614440918,
1.6825000000000001,-0.074068903923034668,
1.6850000000000001,-0.071905255317687988,
1.6875,-0.069909892976284027,
1.6899999999999999,-0.068082809448242188,
1.6924999999999999,-0.065077744424343109,
1.6950000000000001,-0.063875719904899597,
1.6975,-0.062817931175231934,
1.7,-0.06183227151632309,
1.7024999999999999,-0.059620540589094162,
1.7050000000000001,-0.058250229805707932,
1.7075,-0.05659143254160881,
1.71,-0.054596066474914551,
1.7124999999999999,-0.049571596086025238,
1.7150000000000001,-0.046638648957014084,
1.7175,-0.043465297669172287,
1.72,-0.04012366384267807,
1.7224999999999999,-0.03322402760386467,
1.7250000000000001,-0.029714107513427734,
1.7275,-0.026180148124694824,
1.73,-0.022598108276724815,
1.7324999999999999,-0.01521766185760498,
1.7350000000000001,-0.011299054138362408,
1.7375,-0.0072121620178222656,
1.74,-0.0029089055024087429,
1.7424999999999999,0.0063947839662432671,
1.7450000000000001,0.01139521598815918,
1.7475000000000001,0.016636054962873459,
1.75,0.022093256935477257,
1.7524999999999999,0.033704839646816254,
1.7549999999999999,0.039859216660261154,
1.7575000000000001,0.046302080154418945,
1.76,0.052961312234401703,
1.7625,0.067000985145568848,
1.7649999999999999,0.074237190186977386,
1.7675000000000001,0.081497430801391602,
1.77,0.088685557246208191,
1.7725,0.10222037881612778,
1.7749999999999999,0.10832667350769043,
1.7775000000000001,0.11383195966482162,
1.78,0.11868815124034882,
1.7825,0.12638112902641296,
1.7849999999999999,0.129241943359375,
1.7875000000000001,0.1314777135848999,
1.79,0.13318459689617157,
1.7925,0.13505975902080536,
1.7949999999999999,0.13525208830833435,
1.7975000000000001,0.13489148020744324,
1.8,0.13388177752494812,
1.8025,0.12950639426708221,
1.8049999999999999,0.12592434883117676,
1.8075000000000001,0.12123644351959229,
1.8100000000000001,0.11541863530874252,
1.8125,0.10020097345113754,
1.8149999999999999,0.090921327471733093,
1.8174999999999999,0.08063197135925293,
1.8200000000000001,0.069549284875392914,
1.8225,0.045701067894697189,
1.825,0.033416353166103363,
1.8274999999999999,0.021131634712219238,
1.8300000000000001,0.0090873241424560547,
1.8325,-0.013727148994803429,
1.835,-0.024256905540823936,
1.8374999999999999,-0.034089487046003342,
1.8400000000000001,-0.043200850486755371,
1.8425,-0.059259932488203049,
1.845,-0.066255733370780945,
1.8474999999999999,-0.072602435946464539,
1.8500000000000001,-0.078324079513549805,
1.8525,-0.088132619857788086,
1.855,-0.092267595231533051,
1.8574999999999999,-0.095969840884208679,
1.8600000000000001,-0.099239349365234375,
1.8625,-0.10467251390218735,
1.865,-0.10693232715129852,
1.8674999999999999,-0.10895173251628876,
1.8700000000000001,-0.11075477302074432,
1.8725000000000001,-0.11388003826141357,
1.875,-0.11522631347179413,
1.8774999999999999,-0.11640429496765137,
1.8799999999999999,-0.11736591905355453,
1.8825000000000001,-0.11854390799999237,
1.885,-0.11866410821676254,
1.8875,-0.11844774335622787,
1.8899999999999999,-0.11787077039480209,
1.8925000000000001,-0.11589944362640381,
1.895,-0.11462529748678207,
1.8975,-0.11332710832357407,
1.8999999999999999,-0.11207699775695801,
1.9025000000000001,-0.11010567843914032,
1.905,-0.10950466245412827,
1.9075,-0.10921617597341537,
1.9099999999999999,-0.10921617597341537,
1.9125000000000001,-0.10986527055501938,
1.915,-0.11039416491985321,
1.9175,-0.11094709485769272,
1.9199999999999999,-0.11147598922252655,
1.9225000000000001,-0.112269327044487,
1.925,-0.11246164888143539,
1.9275,-0.11248569190502167,
1.9299999999999999,-0.11238952726125717,
1.9325000000000001,-0.11190871894359589,
1.9350000000000001,-0.11157214641571045,
1.9375,-0.11123558133840561,
1.9399999999999999,-0.11089901626110077,
1.9424999999999999,-0.11039416491985321,
1.9450000000000001,-0.11020183563232422,
1.9475,-0.11008163541555405,
1.95,-0.10996143519878387,
1.9524999999999999,-0.10960082709789276,
1.9550000000000001,-0.1092882975935936,
1.9575,-0.10880748927593231,
1.96,-0.10813435167074203,
1.9624999999999999,-0.10625918954610825,
1.9650000000000001,-0.10512928664684296,
1.9675,-0.10392725467681885,
1.97,-0.10274927318096161,
1.9724999999999999,-0.10072986781597137,
1.9750000000000001,-0.10000865161418915,
1.9775,-0.099527835845947266,
1.98,-0.099239349365234375,
1.9824999999999999,-0.099143192172050476,
1.9850000000000001,-0.099239349365234375,
1.9875,-0.099311470985412598,
1.99,-0.099311470985412598,
1.9924999999999999,-0.098950862884521484,
1.9950000000000001,-0.098566219210624695,
1.9975000000000001,-0.098037324845790863,
2,-0.097364187240600586,86.065574645996094
2.0024999999999999,-0.095681354403495789,
2.0049999999999999,-0.094695687294006348,
2.0074999999999998,-0.09368598461151123,
2.0099999999999998,-0.092652246356010437,
2.0125000000000002,-0.090584754943847656,
2.0150000000000001,-0.089647173881530762,
2.0175000000000001,-0.088805757462978363,
2.02,-0.088084541261196136,
2.0225,-0.087002716958522797,
2.0249999999999999,-0.08661806583404541,
2.0274999999999999,-0.08628150075674057,
2.0299999999999998,-0.085993014276027679,
2.0325000000000002,-0.08524775505065918,
2.0350000000000001,-0.084718868136405945,
2.0375000000000001,-0.08411785215139389,
2.04,-0.083396635949611664,
2.0425,-0.081785917282104492,
2.0449999999999999,-0.080968543887138367,
2.0474999999999999,-0.08024732768535614,
2.0499999999999998,-0.079598233103752136,
2.0525000000000002,-0.078636609017848969,
2.0550000000000002,-0.078276000916957855,
2.0575000000000001,-0.077939435839653015,
2.0600000000000001,-0.077578827738761902,
2.0625,-0.076665282249450684,
2.0649999999999999,-0.076040230691432953,
2.0674999999999999,-0.075294971466064453,
2.0699999999999998,-0.074477598071098328,
2.0724999999999998,-0.072626471519470215,
2.0750000000000002,-0.071712933480739594,
2.0775000000000001,-0.070823431015014648,
2.0800000000000001,-0.06998201459646225,
2.0825,-0.068587660789489746,
2.085,-0.068034730851650238,
2.0874999999999999,-0.067650079727172852,
2.0899999999999999,-0.067433714866638184,
2.0924999999999998,-0.067553922533988953,
2.0950000000000002,-0.067914530634880066,
2.0975000000000001,-0.068491503596305847,
2.1000000000000001,-0.069212719798088074,
2.1025,-0.070895552635192871,
2.105,-0.071664854884147644,
2.1074999999999999,-0.072289906442165375,
2.1099999999999999,-0.072626471519470215,
2.1124999999999998,-0.072241827845573425,
2.1150000000000002,-0.07140040397644043,
2.1175000000000002,-0.070150300860404968,
2.1200000000000001,-0.068467460572719574,
2.1225000000000001,-0.064068041741847992,
2.125,-0.061543785035610199,
2.1274999999999999,-0.058899324387311935,
2.1299999999999999,-0.056278906762599945,
2.1324999999999998,-0.051566958427429199,
2.1349999999999998,-0.049715839326381683,
2.1375000000000002,-0.04832148551940918,
2.1400000000000001,-0.047456026077270508,
2.1425000000000001,-0.047480069100856781,
2.145,-0.048345528542995453,
2.1475,-0.049667757004499435,
2.1499999999999999,-0.051302514970302582,
2.1524999999999999,-0.054596066474914551,
2.1549999999999998,-0.055701933801174164,
2.1575000000000002,-0.056062541902065277,
2.1600000000000001,-0.055413447320461273,
2.1625000000000001,-0.050268769264221191,
2.165,-0.045652985572814941,
2.1675,-0.039787095040082932,
2.1699999999999999,-0.032935541123151779,
2.1724999999999999,-0.017814040184020996,
2.1749999999999998,-0.010529756546020508,
2.1775000000000002,-0.0041109323501586914,
2.1800000000000002,0.00096162164118140936,
2.1825000000000001,0.0058658919297158718,
2.1850000000000001,0.0053610405884683132,
2.1875,0.0029329459648579359,
2.1899999999999999,-0.0011779865017160773,
2.1924999999999999,-0.013150176033377647,
2.1949999999999998,-0.020170014351606369,
2.1974999999999998,-0.027382176369428635,
2.2000000000000002,-0.034377973526716232,
2.2025000000000001,-0.046903096139431,
2.2050000000000001,-0.05214393138885498,
2.2075,-0.056711636483669281,
2.21,-0.060630243271589279,
2.2124999999999999,-0.066976949572563171,
2.2149999999999999,-0.069549284875392914,
2.2174999999999998,-0.071785055100917816,
2.2200000000000002,-0.073660217225551605,
2.2225000000000001,-0.075944066047668457,
2.2250000000000001,-0.076040230691432953,
2.2275,-0.07522284984588623,
2.23,-0.073395773768424988,
2.2324999999999999,-0.066808663308620453,
2.2349999999999999,-0.062505409121513367,
2.2374999999999998,-0.058154068887233734,
2.2400000000000002,-0.054451823234558105,
2.2425000000000002,-0.052504539489746094,
2.2450000000000001,-0.056110620498657227,
2.2475000000000001,-0.063875719904899597,
2.25,-0.07630467414855957,
2.2524999999999999,-0.11510610580444336,
2.2549999999999999,-0.14025251567363739,
2.2574999999999998,-0.16744236648082733,
2.2599999999999998,-0.19465625286102295,
2.2625000000000002,-0.23869852721691132,
2.2650000000000001,-0.24958889186382294,
2.2675000000000001,-0.24893979728221893,
2.27,-0.23381829261779785,
2.2725,-0.1514313668012619,
2.2749999999999999,-0.081834003329277039,
2.2774999999999999,0.0062986216507852077,
2.2799999999999998,0.1108749732375145,
2.2825000000000002,0.35341998934745789,
2.2850000000000001,0.47987323999404907,
2.2875000000000001,0.60026824474334717,
2.29,0.70691210031509399,
2.2925,0.84983313083648682,
2.2949999999999999,0.87471508979797363,
2.2974999999999999,0.86430549621582031,
2.2999999999999998,0.81858038902282715,
2.3025000000000002,0.6347423791885376,
2.3050000000000002,0.50929886102676392,
2.3075000000000001,0.37272453308105469,
2.3100000000000001,0.23427507281303406,
2.3125,-0.014232000336050987,
2.3149999999999999,-0.11106729507446289,
2.3174999999999999,-0.18446306884288788,
2.3199999999999998,-0.23352980613708496,
2.3224999999999998,-0.26610475778579712,
2.3250000000000002,-0.25728186964988708,
2.3275000000000001,-0.23814558982849121,
2.3300000000000001,-0.21360020339488983,
2.3325,-0.16400456428527832,
2.335,-0.14419516921043396,
2.3374999999999999,-0.129241943359375,
2.3399999999999999,-0.11907279491424561,
2.3424999999999998,-0.1092882975935936,
2.3450000000000002,-0.10717272758483887,
2.3475000000000001,-0.10534565150737762,
2.3500000000000001,-0.10298967361450195,
2.3525,-0.095128417015075684,
2.355,-0.089743338525295258,
2.3574999999999999,-0.083805322647094727,
2.3599999999999999,-0.077771149575710297,
2.3624999999999998,-0.066880784928798676,
2.3650000000000002,-0.062529444694519043,
2.3675000000000002,-0.059043567627668381,
2.3700000000000001,-0.056326985359191895,
2.3725000000000001,-0.052817068994045258,
2.375,-0.05168716236948967,
2.3774999999999999,-0.050749581307172775,
2.3799999999999999,-0.049908161163330078,
2.3824999999999998,-0.048201285302639008,
2.3849999999999998,-0.04723966121673584,
2.3875000000000002,-0.046181879937648773,
2.3900000000000001,-0.044979851692914963,
2.3925000000000001,-0.042215190827846527,
2.395,-0.040580432862043381,
2.3975,-0.038777392357587814,
2.3999999999999999,-0.036830108612775803,
2.4024999999999999,-0.032454729080200195,
2.4049999999999998,-0.030098756775259972,
2.4075000000000002,-0.027670662850141525,
2.4100000000000001,-0.025194486603140831,
2.4125000000000001,-0.02029021643102169,
2.415,-0.017910202965140343,
2.4175,-0.015578269958496094,
2.4199999999999999,-0.013318459503352642,
2.4224999999999999,-0.008822878822684288,
2.4249999999999998,-0.0065630674362182617,
2.4275000000000002,-0.0042311353608965874,
2.4300000000000002,-0.0018511216621845961,
2.4325000000000001,0.0031252703629434109,
2.4350000000000001,0.0057216486893594265,
2.4375,0.0083661079406738281,
2.4399999999999999,0.01105864904820919,
2.4424999999999999,0.016636054962873459,
2.4449999999999998,0.019569000229239464,
2.4474999999999998,0.022622149437665939,
2.4500000000000002,0.025891661643981934,
2.4525000000000001,0.033199988305568695,
2.4550000000000001,0.037334959954023361,
2.4575,0.041830539703369141,
2.46,0.046686731278896332,
2.4624999999999999,0.05738477036356926,
2.4649999999999999,0.063178539276123047,
2.4674999999999998,0.06923675537109375,
2.4700000000000002,0.075487300753593445,
2.4725000000000001,0.088469192385673523,
2.4750000000000001,0.095080338418483734,
2.4775,0.10169148445129395,
2.48,0.10827859491109848,
2.4824999999999999,0.12102007865905762,
2.4849999999999999,0.12703022360801697,
2.4874999999999998,0.13275186717510223,
2.4900000000000002,0.13813695311546326,
2.4925000000000002,0.14772912859916687,
2.4950000000000001,0.15198430418968201,
2.4975000000000001,0.15587887167930603,
2.5,0.15946090221405029,
2.5024999999999999,0.16573548316955566,
2.5049999999999999,0.1684039831161499,
2.5074999999999998,0.17066380381584167,
2.5099999999999998,0.17241875827312469,
2.5125000000000002,0.17395734786987305,
2.5150000000000001,0.17350058257579803,
2.5175000000000001,0.17205815017223358,
2.52,0.16953389346599579,
2.5225,0.16119182109832764,
2.5249999999999999,0.15537402033805847,
2.5274999999999999,0.14849841594696045,
2.5299999999999998,0.14068524539470673,
2.5325000000000002,0.12258271872997284,
2.5350000000000001,0.11253377050161362,
2.5375000000000001,0.10195593535900116,
2.54,0.091041527688503265,
2.5425,0.068683825433254242,
2.5449999999999999,0.05755305290222168,
2.5474999999999999,0.046638648957014084,
2.5499999999999998,0.036108892410993576,
2.5525000000000002,0.016539892181754112,
2.5550000000000002,0.0076689324341714382,
2.5575000000000001,-0.00055293244076892734,
2.5600000000000001,-0.0081257028505206108,
2.5625,-0.021468203514814377,
2.5649999999999999,-0.027334094047546387,
2.5674999999999999,-0.032695136964321136,
2.5699999999999998,-0.037599407136440277,
2.5724999999999998,-0.046061675995588303,
2.5750000000000002,-0.049619674682617188,
2.5775000000000001,-0.052720904350280762,
2.5800000000000001,-0.055365364998579025,
2.5825,-0.059380136430263519,
2.585,-0.060846608132123947,
2.5874999999999999,-0.062048636376857758,
2.5899999999999999,-0.063010260462760925,
2.5924999999999998,-0.064596936106681824,
2.5950000000000002,-0.065294109284877777,
2.5975000000000001,-0.065919160842895508,
2.6000000000000001,-0.067025028169155121,
2.6025,-0.067457757890224457,
2.605,-0.067794322967529297,
2.6074999999999999,-0.067986652255058289,
2.6099999999999999,-0.068106852471828461,
2.6124999999999998,-0.068082809448242188,
2.6150000000000002,-0.068034730851650238,
2.6175000000000002,-0.067986652255058289,
2.6200000000000001,-0.067962609231472015,
2.6225000000000001,-0.067986652255058289,
2.625,-0.068010687828063965,
2.6274999999999999,-0.068010687828063965,
2.6299999999999999,-0.067962609231472015,
2.6324999999999998,-0.067794322967529297,
2.6349999999999998,-0.067698165774345398,
2.6375000000000002,-0.067602001130580902,
2.6400000000000001,-0.067553922533988953,
2.6425000000000001,-0.067698165774345398,
2.645,-0.067914530634880066,
2.6475,-0.068178974092006683,
2.6499999999999999,-0.068491503596305847,
2.6524999999999999,-0.069068476557731628,
2.6549999999999998,-0.069260798394680023,
2.6575000000000002,-0.069332920014858246,
2.6600000000000001,-0.069116555154323578,
2.6625000000000001,-0.068804025650024414,
2.665,-0.068419381976127625,
2.6675,-0.067962609231472015,
2.6699999999999999,-0.067025028169155121,
2.6724999999999999,-0.066592298448085785,
2.6749999999999998,-0.066159568727016449,
2.6775000000000002,-0.06570279598236084,
2.6800000000000002,-0.064645014703273773,
2.6825000000000001,-0.063923798501491547,
2.6850000000000001,-0.063058339059352875,
2.6875,-0.061976514756679535,
2.6899999999999999,-0.059259932488203049,
2.6924999999999999,-0.057649217545986176,
2.6949999999999998,-0.055918298661708832,
2.6974999999999998,-0.054163336753845215,
2.7000000000000002,-0.052432417869567871,
2.7025000000000001,-0.049210987985134125,
2.7050000000000001,-0.047816634178161621,
2.7075,-0.046566527336835861,
2.71,-0.044475000351667404,
2.7124999999999999,-0.043609540909528732,
2.7149999999999999,-0.042792163789272308,
2.7174999999999998,-0.041998825967311859,
2.7200000000000002,-0.040340028703212738,
2.7225000000000001,-0.039450526237487793,
2.7250000000000001,-0.038536988198757172,
2.7275,-0.037599407136440277,
2.73,-0.03584444522857666,
2.7324999999999999,-0.035099189728498459,
2.7349999999999999,-0.03447413444519043,
2.7374999999999998,-0.033969283103942871,
2.7400000000000002,-0.033368270844221115,
2.7425000000000002,-0.03322402760386467,
2.7450000000000001,-0.033127866685390472,
2.7475000000000001,-0.03305574506521225,
2.75,-0.032839380204677582,
2.7524999999999999,-0.032671093940734863,
2.7549999999999999,-0.032430689781904221,
2.7574999999999998,-0.03214220330119133,
2.7599999999999998,-0.031372904777526855,
2.7625000000000002,-0.030916135758161545,
2.7650000000000001,-0.030459364876151085,
2.7675000000000001,-0.030026635155081749,
2.77,-0.029161175712943077,
2.7725,-0.02877652645111084,
2.7749999999999999,-0.028415918350219727,
2.7774999999999999,-0.028079351410269737,
2.7799999999999998,-0.027478337287902832,
2.7825000000000002,-0.027165811508893967,
2.7850000000000001,-0.026853283867239952,
2.7875000000000001,-0.026516716927289963,
2.79,-0.025867622345685959,
2.7925,-0.025603175163269043,
2.7949999999999999,-0.025410851463675499,
2.7974999999999999,-0.025314688682556152,
2.7999999999999998,-0.025434892624616623,
2.8025000000000002,-0.025627216324210167,
2.8050000000000002,-0.025843581184744835,
2.8075000000000001,-0.026011865586042404,
2.8100000000000001,-0.025867622345685959,
2.8125,-0.0253627710044384,
2.8149999999999999,-0.024497311562299728,
2.8174999999999999,-0.023199122399091721,
2.8199999999999998,-0.019472837448120117,
2.8224999999999998,-0.017188986763358116,
2.8250000000000002,-0.014784932136535645,
2.8275000000000001,-0.01245300006121397,
2.8300000000000001,-0.010337432846426964,
2.8325,-0.0074285268783569336,
2.835,-0.006875594612210989,
2.8374999999999999,-0.0069717569276690483,
2.8399999999999999,-0.0088709592819213867,
2.8424999999999998,-0.010385513305664062,
2.8450000000000002,-0.011972188949584961,
2.8475000000000001,-0.013318459503352642,
2.8500000000000001,-0.014183918945491314,
2.8525,-0.013174216262996197,
2.855,-0.011010567657649517,
2.8574999999999999,-0.0076208515092730522,
2.8599999999999999,0.0025002162437886,
2.8624999999999998,0.0087747974321246147,
2.8650000000000002,0.015361905097961426,
2.8675000000000002,0.021852850914001465,
2.8700000000000001,0.032719176262617111,
2.8725000000000001,0.036277174949645996,
2.875,0.038200419396162033,
2.8774999999999999,0.038344662636518478,
2.8799999999999999,0.036685865372419357,
2.8824999999999998,0.02860824391245842,
2.8849999999999998,0.022766392678022385,
2.8875000000000002,0.016251405701041222,
2.8900000000000001,0.0027406215667724609,
2.8925000000000001,-0.0035099189262837172,
2.895,-0.0091113653033971786,
2.8975,-0.013895432464778423,
2.8999999999999999,-0.021035473793745041,
2.9024999999999999,-0.023559730499982834,
2.9049999999999998,-0.025603175163269043,
2.9075000000000002,-0.027382176369428635,
2.9100000000000001,-0.030651688575744629,
2.9125000000000001,-0.03231048583984375,
2.915,-0.033921204507350922,
2.9175,-0.035363636910915375,
2.9199999999999999,-0.03675798699259758,
2.9224999999999999,-0.036277174949645996,
2.9249999999999998,-0.034810703247785568,
2.9275000000000002,-0.032430689781904221,
2.9300000000000002,-0.026108026504516602,
2.9325000000000001,-0.023343365639448166,
2.9350000000000001,-0.021973054856061935,
2.9375,-0.022958716377615929,
2.9399999999999999,-0.027237933129072189,
2.9424999999999999,-0.048634015023708344,
2.9449999999999998,-0.066279768943786621,
2.9474999999999998,-0.088156662881374359,
2.9500000000000002,-0.13972362875938416,
2.9525000000000001,-0.16561529040336609,
2.9550000000000001,-0.18818935751914978,
2.9575,-0.20446479320526123,
2.96,-0.20561873912811279,
2.9624999999999999,-0.18475155532360077,
2.9649999999999999,-0.14655113220214844,
2.9674999999999998,-0.089719295501708984,
2.9700000000000002,0.078997217118740082,
2.9725000000000001,0.18701136112213135,
2.9750000000000001,0.30572354793548584,
2.9775,0.42955636978149414,
2.98,0.66496133804321289,
2.9824999999999999,0.76158028841018677,
2.9849999999999999,0.83461546897888184,
2.9874999999999998,0.87824904918670654,
2.9900000000000002,0.86401700973510742,
2.9925000000000002,0.80562257766723633,
2.9950000000000001,0.71705722808837891,
2.9975000000000001,0.60437917709350586,
3,0.33887547254562378,85.561492919921875
3.0024999999999999,0.203935906291008,
3.0049999999999999,0.078852973878383636,
3.0074999999999998,-0.029617946594953537,
3.0099999999999998,-0.17989537119865417,
3.0125000000000002,-0.2192256897687912,
3.0150000000000001,-0.23667912185192108,
3.0175000000000001,-0.23590981960296631,
3.02,-0.19850274920463562,
3.0225,-0.17152926325798035,
3.0249999999999999,-0.14460384845733643,
3.0274999999999999,-0.12063543498516083,
3.0299999999999998,-0.087483525276184082,
3.0325000000000002,-0.078636609017848969,
3.0350000000000001,-0.073924660682678223,
3.0375000000000001,-0.072049498558044434,
3.04,-0.071568690240383148,
3.0425,-0.070895552635192871,
3.0449999999999999,-0.069092512130737305,
3.0474999999999999,-0.06599128246307373,
3.0499999999999998,-0.056663554161787033,
3.0525000000000002,-0.051158271729946136,
3.0550000000000002,-0.045628946274518967,
3.0575000000000001,-0.04046022891998291,
3.0600000000000001,-0.031925838440656662,
3.0625,-0.028752487152814865,
3.0649999999999999,-0.026228230446577072,
3.0674999999999999,-0.02428094670176506,
3.0699999999999998,-0.021516283974051476,
3.0724999999999998,-0.02045850083231926,
3.0750000000000002,-0.019520919770002365,
3.0775000000000001,-0.018631419166922569,
3.0800000000000001,-0.016684135422110558,
3.0825,-0.015578269958496094,
3.085,-0.014328162185847759,
3.0874999999999999,-0.012909770011901855,
3.0899999999999999,-0.0095681352540850639,
3.0924999999999998,-0.0076929731294512749,
3.0950000000000002,-0.0056976079940795898,
3.0975000000000001,-0.0036301217041909695,
3.1000000000000001,0.00045677027083002031,
3.1025,0.0024040541611611843,
3.105,0.0042311353608965874,
3.1074999999999999,0.0059620542451739311,
3.1099999999999999,0.0091834869235754013,
3.1124999999999998,0.010746121406555176,
3.1150000000000002,0.012380878441035748,
3.1175000000000002,0.014087757095694542,
3.1200000000000001,0.017934244126081467,
3.1225000000000001,0.020097892731428146,
3.125,0.022429823875427246,
3.1274999999999999,0.02490600012242794,
3.1299999999999999,0.030218958854675293,
3.1324999999999998,0.033031702041625977,
3.1349999999999998,0.035940609872341156,
3.1375000000000002,0.038993757218122482,
3.1400000000000001,0.045652985572814941,
3.1425000000000001,0.049307148903608322,
3.145,0.053273838013410568,
3.1475,0.05750497430562973,
3.1499999999999999,0.066880784928798676,
3.1524999999999999,0.071977376937866211,
3.1549999999999998,0.077266298234462738,
3.1575000000000002,0.08274754136800766,
3.1600000000000001,0.094046592712402344,
3.1625000000000001,0.09979228675365448,
3.165,0.10558605194091797,
3.1675,0.111427903175354,
3.1699999999999999,0.12315969169139862,
3.1724999999999999,0.12900154292583466,
3.1749999999999998,0.13479530811309814,
3.1775000000000002,0.1405169665813446,
3.1800000000000002,0.1514313668012619,
3.1825000000000001,0.15652796626091003,
3.1850000000000001,0.16131202876567841,
3.1875,0.16571144759654999,
3.1899999999999999,0.17323613166809082,
3.1924999999999999,0.17626523971557617,
3.1949999999999998,0.17883758246898651,
3.1974999999999998,0.18088102340698242,
3.2000000000000002,0.18345336616039276,
3.2025000000000001,0.18395821750164032,
3.2050000000000001,0.18391013145446777,
3.2075,0.18326103687286377,
3.21,0.1799674928188324,
3.2124999999999999,0.17717878520488739,
3.2149999999999999,0.17350058257579803,
3.2174999999999998,0.16886076331138611,
3.2200000000000002,0.15645584464073181,
3.2225000000000001,0.14866670966148376,
3.2250000000000001,0.13984382152557373,
3.2275,0.13005933165550232,
3.23,0.10815839469432831,
3.2324999999999999,0.096402570605278015,
3.2349999999999999,0.084382295608520508,
3.2374999999999998,0.072386071085929871,
3.2400000000000002,0.049283109605312347,
3.2425000000000002,0.038585066795349121,
3.2450000000000001,0.028704404830932617,
3.2475000000000001,0.019689202308654785,
3.25,0.0043753786012530327,
3.2524999999999999,-0.0020194053649902344,
3.2549999999999999,-0.0077170133590698242,
3.2574999999999998,-0.012837648391723633,
3.2599999999999998,-0.021949013695120811,
3.2625000000000002,-0.026180148124694824,
3.2650000000000001,-0.030267041176557541,
3.2675000000000001,-0.034233730286359787,
3.27,-0.041782461106777191,
3.2725,-0.045220255851745605,
3.2749999999999999,-0.048297446221113205,
3.2774999999999999,-0.050965946167707443,
3.2799999999999998,-0.053129594773054123,
3.2825000000000002,-0.055918298661708832,
3.2850000000000001,-0.056567393243312836,
3.2875000000000001,-0.056831836700439453,
3.29,-0.056567393243312836,
3.2925,-0.056278906762599945,
3.2949999999999999,-0.056038498878479004,
3.2974999999999999,-0.055918298661708832,
3.2999999999999998,-0.055966377258300781,
3.3025000000000002,-0.056567393243312836,
3.3050000000000002,-0.057072244584560394,
3.3075000000000001,-0.057649217545986176,
3.3100000000000001,-0.058731041848659515,
3.3125,-0.059115689247846603,
3.3149999999999999,-0.059380136430263519,
3.3174999999999999,-0.059500336647033691,
3.3199999999999998,-0.059283971786499023,
3.3224999999999998,-0.059019528329372406,
3.3250000000000002,-0.058731041848659515,
3.3275000000000001,-0.058442555367946625,
3.3300000000000001,-0.058057904243469238,
3.3325,-0.058081947267055511,
3.335,-0.058250229805707932,
3.3374999999999999,-0.058610837906599045,
3.3399999999999999,-0.059115689247846603,
3.3424999999999998,-0.060510039329528809,
3.3450000000000002,-0.061303377151489258,
3.3475000000000001,-0.062072675675153732,
3.3500000000000001,-0.063346825540065765,
3.3525,-0.063755512237548828,
3.355,-0.06394784152507782,
3.3574999999999999,-0.06394784152507782,
3.3599999999999999,-0.063274703919887543,
3.3624999999999998,-0.062649652361869812,
3.3650000000000002,-0.061856310814619064,
3.3675000000000002,-0.060942769050598145,
3.3700000000000001,-0.059933066368103027,
3.3725000000000001,-0.05767325684428215,
3.375,-0.056495271623134613,
3.3774999999999999,-0.055341325700283051,
3.3799999999999999,-0.0530574731528759,
3.3824999999999998,-0.05197564885020256,
3.3849999999999998,-0.050989985466003418,
3.3875000000000002,-0.050052404403686523,
3.3900000000000001,-0.048393607139587402,
3.3925000000000001,-0.047672390937805176,
3.395,-0.046999257057905197,
3.3975,-0.046374201774597168,
3.3999999999999999,-0.045100055634975433,
3.4024999999999999,-0.044378839433193207,
3.4049999999999998,-0.043561458587646484,
3.4075000000000002,-0.04262387752532959,
3.4100000000000001,-0.040364068001508713,
3.4125000000000001,-0.039065878838300705,
3.415,-0.0376715287566185,
3.4175,-0.036253135651350021,
3.4199999999999999,-0.033464431762695312,
3.4224999999999999,-0.032214324921369553,
3.4249999999999998,-0.031108459457755089,
3.4275000000000002,-0.03014683723449707,
3.4300000000000002,-0.028728445991873741,
3.4325000000000001,-0.028223594650626183,
3.4350000000000001,-0.027862986549735069,
3.4375,-0.027574500069022179,
3.4399999999999999,-0.027189850807189941,
3.4424999999999999,-0.02706964872777462,
3.4449999999999998,-0.026973485946655273,
3.4474999999999998,-0.026925405487418175,
3.4500000000000002,-0.026997527107596397,
3.4525000000000001,-0.027117729187011719,
3.4550000000000001,-0.027286013588309288,
3.4575,-0.027502378448843956,
3.46,-0.027911067008972168,
3.4624999999999999,-0.028079351410269737,
3.4649999999999999,-0.028175514191389084,
3.4674999999999998,-0.028175514191389084,
3.4700000000000002,-0.027862986549735069,
3.4725000000000001,-0.027550458908081055,
3.4750000000000001,-0.027141770347952843,
3.4775,-0.026636919006705284,
3.48,-0.025507014244794846,
3.4824999999999999,-0.02490600012242794,
3.4849999999999999,-0.024353068321943283,
3.4874999999999998,-0.023872256278991699,
3.4900000000000002,-0.023487608879804611,
3.4925000000000002,-0.023175081238150597,
3.4950000000000001,-0.023247202858328819,
3.4975000000000001,-0.023463567718863487,
3.5,-0.024184783920645714,
3.5024999999999999,-0.024545392021536827,
3.5049999999999999,-0.024857919663190842,
3.5074999999999998,-0.025050243362784386,
3.5099999999999998,-0.02490600012242794,
3.5125000000000002,-0.024569433182477951,
3.5150000000000001,-0.024064581841230392,
3.5175000000000001,-0.023439526557922363,
3.52,-0.022766392678022385,
3.5225,-0.021540325134992599,
3.5249999999999999,-0.02108355425298214,
3.5274999999999999,-0.020819108933210373,
3.5299999999999998,-0.020795067772269249,
3.5325000000000002,-0.021059513092041016,
3.5350000000000001,-0.021444162353873253,
3.5375000000000001,-0.021973054856061935,
3.54,-0.023127000778913498,
3.5425,-0.023655891418457031,
3.5449999999999999,-0.024088621139526367,
3.5474999999999999,-0.024377107620239258,
3.5499999999999998,-0.024304986000061035,
3.5525000000000002,-0.023872256278991699,
3.5550000000000002,-0.023127000778913498,
3.5575000000000001,-0.022093256935477257,
3.5600000000000001,-0.019160311669111252,
3.5625,-0.017333230003714561,
3.5649999999999999,-0.015313824638724327,
3.5674999999999999,-0.013198256492614746,
3.5699999999999998,-0.009015202522277832,
3.5724999999999998,-0.0071160001680254936,
3.5750000000000002,-0.0054812431335449219,
3.5775000000000001,-0.0041349730454385281,
3.5800000000000001,-0.0025963783264160156,
3.5825,-0.0024521350860595703,
3.585,-0.0027165811043232679,
3.5874999999999999,-0.0033416352234780788,
3.5899999999999999,-0.0053369998931884766,
3.5924999999999998,-0.0064909458160400391,
3.5950000000000002,-0.0075487298890948296,
3.5975000000000001,-0.0083661079406738281,
3.6000000000000001,-0.0085824728012084961,
3.6025,-0.0076929731294512749,
3.605,-0.0059860944747924805,
3.6074999999999999,-0.0033656756859272718,
3.6099999999999999,0.0044715404510498047,
3.6124999999999998,0.0095200538635253906,
3.6150000000000002,0.015097459778189659,
3.6175000000000002,0.020963352173566818,
3.6200000000000001,0.032238364219665527,
3.6225000000000001,0.037022434175014496,
3.625,0.040772758424282074,
3.6274999999999999,0.043272972106933594,
3.6299999999999999,0.043753784149885178,
3.6324999999999998,0.041614174842834473,
3.6349999999999998,0.037984054535627365,
3.6375000000000002,0.033079784363508224,
3.6400000000000001,0.020554661750793457,
3.6425000000000001,0.013606945984065533,
3.645,0.006659229751676321,
3.6475,2.4040540665737353e-05,
3.6499999999999999,-0.011491378769278526,
3.6524999999999999,-0.016203325241804123,
3.6549999999999998,-0.020218094810843468,
3.6575000000000002,-0.023559730499982834,
3.6600000000000001,-0.02877652645111084,
3.6625000000000001,-0.030771892517805099,
3.665,-0.032334528863430023,
3.6675,-0.033416353166103363,
3.6699999999999999,-0.033488474786281586,
3.6724999999999999,-0.032190285623073578,
3.6749999999999998,-0.02985835075378418,
3.6775000000000002,-0.026588838547468185,
3.6800000000000002,-0.018463134765625,
3.6825000000000001,-0.014808973297476768,
3.6850000000000001,-0.012525121681392193,
3.6875,-0.012549161911010742,
3.6899999999999999,-0.023295283317565918,
3.6924999999999999,-0.035339593887329102,
3.6949999999999998,-0.052119892090559006,
3.6974999999999998,-0.073251530528068542,
3.7000000000000002,-0.12431363761425018,
3.7025000000000001,-0.150686115026474,
3.7050000000000001,-0.17439007759094238,
3.7075,-0.19263684749603271,
3.71,-0.20059427618980408,
3.7124999999999999,-0.1845351904630661,
3.7149999999999999,-0.15184006094932556,
3.7174999999999998,-0.10097026824951172,
3.7200000000000002,0.05659143254160881,
3.7225000000000001,0.16068696975708008,
3.7250000000000001,0.27742785215377808,
3.7275,0.40186166763305664,
3.73,0.64753198623657227,
3.7324999999999999,0.75379115343093872,
3.7349999999999999,0.83896678686141968,
3.7374999999999998,0.89644771814346313,
3.7400000000000002,0.91077589988708496,
3.7425000000000002,0.86478632688522339,
3.7450000000000001,0.78598141670227051,
3.7475000000000001,0.67962610721588135,
3.75,0.41508397459983826,
3.7524999999999999,0.27502378821372986,
3.7549999999999999,0.14179110527038574,
3.7574999999999998,0.02307891845703125,
3.7599999999999998,-0.15025338530540466,
3.7625000000000002,-0.20057022571563721,
3.7650000000000001,-0.22766391932964325,
3.7675000000000001,-0.23475587368011475,
3.77,-0.20708522200584412,
3.7725,-0.18222729861736298,
3.7749999999999999,-0.15585482120513916,
3.7774999999999999,-0.13123731315135956,
3.7799999999999998,-0.094527408480644226,
3.7825000000000002,-0.083372592926025391,
3.7850000000000001,-0.07630467414855957,
3.7875000000000001,-0.072193741798400879,
3.79,-0.068178974092006683,
3.7925,-0.066375933587551117,
3.7949999999999999,-0.06394784152507782,
3.7974999999999999,-0.060774486511945724,
3.7999999999999998,-0.052696865051984787,
3.8025000000000002,-0.048369567841291428,
3.8050000000000002,-0.044258635491132736,
3.8075000000000001,-0.040556393563747406,
3.8100000000000001,-0.03476262092590332,
3.8125,-0.032598972320556641,
3.8149999999999999,-0.030795931816101074,
3.8174999999999999,-0.029185216873884201,
3.8199999999999998,-0.026083987206220627,
3.8224999999999998,-0.024425189942121506,
3.8250000000000002,-0.022622149437665939,
3.8275000000000001,-0.020698904991149902,
3.8300000000000001,-0.016563933342695236,
3.8325,-0.014448365196585655,
3.835,-0.012332797050476074,
3.8374999999999999,-0.01028935145586729,
3.8399999999999999,-0.0065390272065997124,
3.8424999999999998,-0.0048561892472207546,
3.8450000000000002,-0.0032695136032998562,
3.8475000000000001,-0.0018030405044555664,
3.8500000000000001,0.00096162164118140936,
3.8525,0.002307891845703125,
3.855,0.0037262837868183851,
3.8574999999999999,0.0052167973481118679,
3.8599999999999999,0.0085824728012084961,
3.8624999999999998,0.010481676086783409,
3.8650000000000002,0.012573203071951866,
3.8675000000000002,0.014808973297476768,
3.8700000000000001,0.019737284630537033,
3.8725000000000001,0.022357702255249023,
3.875,0.02507428452372551,
3.8774999999999999,0.027838945388793945,
3.8799999999999999,0.033416353166103363,
3.8824999999999998,0.036229096353054047,
3.8849999999999998,0.03908991813659668,
3.8875000000000002,0.041998825967311859,
3.8900000000000001,0.048129163682460785,
3.8925000000000001,0.051446758210659027,
3.895,0.054956674575805664,
3.8975,0.058706998825073242,
3.8999999999999999,0.066928863525390625,
3.9024999999999999,0.071424447000026703,
3.9049999999999998,0.076136395335197449,
3.9075000000000002,0.081112787127494812,
3.9100000000000001,0.091738700866699219,
3.9125000000000001,0.097412273287773132,
3.915,0.10335028171539307,
3.9175,0.10955274105072021,
3.9199999999999999,0.12267887592315674,
3.9224999999999999,0.12955448031425476,
3.9249999999999998,0.13655027747154236,
3.9275000000000002,0.14354607462882996,
3.9300000000000002,0.15044569969177246,
3.9325000000000001,0.16337952017784119,
3.9350000000000001,0.16919732093811035,
3.9375,0.17446219921112061,
3.9399999999999999,0.18318891525268555,
3.9424999999999999,0.18672287464141846,
3.9449999999999998,0.18972794711589813,
3.9474999999999998,0.19230028986930847,
3.9500000000000002,0.19643525779247284,
3.9525000000000001,0.19802193343639374,
3.9550000000000001,0.19929608702659607,
3.9575,0.20013749599456787,
3.96,0.20018558204174042,
3.9624999999999999,0.19905567169189453,
3.9649999999999999,0.19696414470672607,
3.9674999999999998,0.1937667578458786,
3.9700000000000002,0.18371781706809998,
3.9725000000000001,0.17677009105682373,
3.9750000000000001,0.16862034797668457,
3.9775,0.15936474502086639,
3.98,0.13811290264129639,
3.9824999999999999,0.12652537226676941,
3.9849999999999999,0.11457721889019012,
3.9874999999999998,0.10248482227325439,
3.9900000000000002,0.078708730638027191,
3.9925000000000002,0.067361593246459961,
3.9950000000000001,0.056543350219726562,
3.9975000000000001,0.046350162476301193,
4,0.028103392571210861,84.95574951171875
4.0025000000000004,0.020073851570487022,
4.0049999999999999,0.01276552677154541,
4.0075000000000003,0.0061062974855303764,
4.0099999999999998,-0.0053610405884683132,
4.0125000000000002,-0.01031339168548584,
4.0149999999999997,-0.014833013527095318,
4.0175000000000001,-0.018967986106872559,
4.0199999999999996,-0.026252269744873047,
4.0225,-0.029449662193655968,
4.0250000000000004,-0.032334528863430023,
4.0274999999999999,-0.034906864166259766,
4.0300000000000002,-0.03904183954000473,
4.0324999999999998,-0.040604472160339355,
4.0350000000000001,-0.041830539703369141,
4.0374999999999996,-0.04274408146739006,
4.04,-0.043849945068359375,
4.0425000000000004,-0.044162474572658539,
4.0449999999999999,-0.044378839433193207,
4.0475000000000003,-0.044523082673549652,
4.0499999999999998,-0.044811569154262543,
4.0525000000000002,-0.044979851692914963,
4.0549999999999997,-0.045124094933271408,
4.0575000000000001,-0.045220255851745605,
4.0599999999999996,-0.045244298875331879,
4.0625,-0.045100055634975433,
4.0650000000000004,-0.044835608452558517,
4.0674999999999999,-0.044499039649963379,
4.0700000000000003,-0.044114392250776291,
4.0724999999999998,-0.043297015130519867,
4.0750000000000002,-0.042984485626220703,
4.0774999999999997,-0.042792163789272308,
4.0800000000000001,-0.042792163789272308,
4.0824999999999996,-0.042936407029628754,
4.085,-0.043152771890163422,
4.0875000000000004,-0.04336913675069809,
4.0899999999999999,-0.043585501611232758,
4.0925000000000002,-0.043561458587646484,
4.0949999999999998,-0.043465297669172287,
4.0975000000000001,-0.043297015130519867,
4.0999999999999996,-0.043032567948102951,
4.1025,-0.043056607246398926,
4.1050000000000004,-0.043248932808637619,
4.1074999999999999,-0.043609540909528732,
4.1100000000000003,-0.044715404510498047,
4.1124999999999998,-0.045340459793806076,
4.1150000000000002,-0.045869350433349609,
4.1174999999999997,-0.046229958534240723,
4.1200000000000001,-0.046061675995588303,
4.1224999999999996,-0.045460663735866547,
4.125,-0.044523082673549652,
4.1275000000000004,-0.043297015130519867,
4.1299999999999999,-0.040412150323390961,
4.1325000000000003,-0.038945674896240234,
4.1349999999999998,-0.037623446434736252,
4.1375000000000002,-0.036541622132062912,
4.1399999999999997,-0.035147272050380707,
4.1425000000000001,-0.034858785569667816,
4.1449999999999996,-0.034786663949489594,
4.1475,-0.034882824867963791,
4.1500000000000004,-0.035195350646972656,
4.1524999999999999,-0.035315554589033127,
4.1550000000000002,-0.035363636910915375,
4.1574999999999998,-0.035243432968854904,
4.1600000000000001,-0.034570299088954926,
4.1624999999999996,-0.033945243805646896,
4.165,-0.033175945281982422,
4.1675000000000004,-0.032238364219665527,
4.1699999999999999,-0.029906433075666428,
4.1725000000000003,-0.028632283210754395,
4.1749999999999998,-0.027310054749250412,
4.1775000000000002,-0.026059946045279503,
4.1799999999999997,-0.023896297439932823,
4.1825000000000001,-0.023102959617972374,
4.1849999999999996,-0.022550027817487717,
4.1875,-0.022237500175833702,
4.1900000000000004,-0.022141337394714355,
4.1924999999999999,-0.022357702255249023,
4.1950000000000003,-0.022525986656546593,
4.1974999999999998,-0.022670229896903038,
4.2000000000000002,-0.022646188735961914,
4.2024999999999997,-0.022405784577131271,
4.2050000000000001,-0.022021135315299034,
4.2074999999999996,-0.021540325134992599,
4.21,-0.021011432632803917,
4.2125000000000004,-0.020049810409545898,
4.2149999999999999,-0.019713243469595909,
4.2175000000000002,-0.019520919770002365,
4.2199999999999998,-0.019472837448120117,
4.2225000000000001,-0.019689202308654785,
4.2249999999999996,-0.019857486709952354,
4.2275,-0.0200017299503088,
4.2300000000000004,-0.019953649491071701,
4.2324999999999999,-0.019689202308654785,
4.2350000000000003,-0.019256472587585449,
4.2374999999999998,-0.018703540787100792,
4.2400000000000002,-0.018054446205496788,
4.2424999999999997,-0.016804337501525879,
4.2450000000000001,-0.016347568482160568,
4.2474999999999996,-0.016035040840506554,
4.25,-0.015986960381269455,
4.2525000000000004,-0.016227364540100098,
4.2549999999999999,-0.016587972640991211,
4.2575000000000003,-0.016996663063764572,
4.2599999999999998,-0.017405351623892784,
4.2625000000000002,-0.017910202965140343,
4.2649999999999997,-0.017934244126081467,
4.2675000000000001,-0.017814040184020996,
4.2699999999999996,-0.017597675323486328,
4.2725,-0.017020702362060547,
4.2750000000000004,-0.016804337501525879,
4.2774999999999999,-0.016660094261169434,
4.2800000000000002,-0.01675625704228878,
4.2824999999999998,-0.016900500282645226,
4.2850000000000001,-0.016996663063764572,
4.2874999999999996,-0.016972621902823448,
4.29,-0.016732215881347656,
4.2925000000000004,-0.015169581398367882,
4.2949999999999999,-0.013775229454040527,
4.2975000000000003,-0.011996230110526085,
4.2999999999999998,-0.0099047031253576279,
4.3025000000000002,-0.0050965948030352592,
4.3049999999999997,-0.0027165811043232679,
4.3075000000000001,-0.00050485134124755859,
4.3099999999999996,0.0027406215667724609,
4.3125,0.0035820405464619398,
4.3150000000000004,0.0037984054069966078,
4.3174999999999999,0.0034137568436563015,
4.3200000000000003,0.001033743261359632,
4.3224999999999998,-0.00074525678064674139,
4.3250000000000002,-0.0026925406418740749,
4.3274999999999997,-0.0045917434617877007,
4.3300000000000001,-0.0073083243332803249,
4.3324999999999996,-0.0076689324341714382,
4.335,-0.007091959472745657,
4.3375000000000004,-0.0054572029039263725,
4.3399999999999999,-0.0026444594841450453,
4.3425000000000002,0.0063947839662432671,
4.3449999999999998,0.012356838211417198,
4.3475000000000001,0.018967986106872559,
4.3499999999999996,0.025915702804923058,
4.3525,0.039186082780361176,
4.3550000000000004,0.044715404510498047,
4.3574999999999999,0.048994623124599457,
4.3600000000000003,0.051783323287963867,
4.3624999999999998,0.05214393138885498,
4.3650000000000002,0.04969179630279541,
4.3674999999999997,0.045677028596401215,
4.3700000000000001,0.040340028703212738,
4.3724999999999996,0.027117729187011719,
4.375,0.019929608330130577,
4.3775000000000004,0.012861689552664757,
4.3799999999999999,0.00012020270514767617,
4.3825000000000003,-0.0052167973481118679,
4.3849999999999998,-0.0097604598850011826,
4.3875000000000002,-0.01353482436388731,
4.3899999999999997,-0.019208392128348351,
4.3925000000000001,-0.02137204073369503,
4.3949999999999996,-0.023223161697387695,
4.3975,-0.024809837341308594,
4.4000000000000004,-0.026156108826398849,
4.4024999999999999,-0.027670662850141525,
4.4050000000000002,-0.02752641960978508,
4.4074999999999998,-0.026588838547468185,
4.4100000000000001,-0.024761756882071495,
4.4124999999999996,-0.018847784027457237,
4.415,-0.015458067879080772,
4.4175000000000004,-0.012549161911010742,
4.4199999999999999,-0.011010567657649517,
4.4225000000000003,-0.015746554359793663,
4.4249999999999998,-0.023776095360517502,
4.4275000000000002,-0.036421418190002441,
4.4299999999999997,-0.053826771676540375,
4.4325000000000001,-0.10094623267650604,
4.4349999999999996,-0.12818416953086853,
4.4375,-0.15527784824371338,
4.4400000000000004,-0.17965495586395264,
4.4424999999999999,-0.20809492468833923,
4.4450000000000003,-0.20583510398864746,
4.4474999999999998,-0.18864612281322479,
4.4500000000000002,-0.15409986674785614,
4.4524999999999997,-0.027478337287902832,
4.4550000000000001,0.064452692866325378,
4.4574999999999996,0.17299573123455048,
4.46,0.29432833194732666,
4.4625000000000004,0.5527641773223877,
4.4649999999999999,0.67553919553756714,
4.4675000000000002,0.78350526094436646,
4.4699999999999998,0.86892127990722656,
4.4725000000000001,0.9471973180770874,
4.4749999999999996,0.9325566291809082,
4.4775,0.88139832019805908,
4.4800000000000004,0.79675161838531494,
4.4824999999999999,0.55192273855209351,
4.4850000000000003,0.40873727202415466,
4.4874999999999998,0.26446998119354248,
4.4900000000000002,0.0077410540543496609,
4.4924999999999997,-0.091257892549037933,
4.4950000000000001,-0.16556720435619354,
4.4974999999999996,-0.21453778445720673,
4.5,-0.23980438709259033,
4.5025000000000004,-0.2344193160533905,
4.5049999999999999,-0.21360020339488983,
4.5075000000000003,-0.18744409084320068,
4.5099999999999998,-0.16020616888999939,
4.5125000000000002,-0.11404832452535629,
4.5149999999999997,-0.09796520322561264,
4.5175000000000001,-0.086642108857631683,
4.5199999999999996,-0.079261660575866699,
4.5225,-0.071592733263969421,
4.5250000000000004,-0.068996354937553406,
4.5274999999999999,-0.066135525703430176,
4.5300000000000002,-0.058418512344360352,
4.5324999999999998,-0.053706567734479904,
4.5350000000000001,-0.048874419182538986,
4.5374999999999996,-0.044282674789428711,
4.54,-0.040219824761152267,
4.5425000000000004,-0.034402012825012207,
4.5449999999999999,-0.032623015344142914,
4.5475000000000003,-0.031420987099409103,
4.5499999999999998,-0.030555527657270432,
4.5525000000000002,-0.029040973633527756,
4.5549999999999997,-0.028031270951032639,
4.5575000000000001,-0.026684999465942383,
4.5599999999999996,-0.025050243362784386,
4.5625,-0.020939311012625694,
4.5650000000000004,-0.018607378005981445,
4.5674999999999999,-0.016251405701041222,
4.5700000000000003,-0.011707743629813194,
4.5724999999999998,-0.0096402568742632866,
4.5750000000000002,-0.0077410540543496609,
4.5774999999999997,-0.0060101351700723171,
4.5800000000000001,-0.004399418830871582,
4.5824999999999996,-0.0014424324035644531,
4.585,0,
4.5875000000000004,0.0014905135612934828,
4.5899999999999999,0.0030771892052143812,
4.5925000000000002,0.0065630674362182617,
4.5949999999999998,0.0085103511810302734,
4.5975000000000001,0.010577837936580181,
4.5999999999999996,0.012741486541926861,
4.6025,0.017309188842773438,
4.6050000000000004,0.019689202308654785,
4.6074999999999999,0.022093256935477257,
4.6100000000000003,0.024521350860595703,
4.6124999999999998,0.02952178381383419,
4.6150000000000002,0.032118164002895355,
4.6174999999999997,0.034786663949489594,
4.6200000000000001,0.037575364112854004,
4.6224999999999996,0.043633580207824707,
4.625,0.046951174736022949,
4.6275000000000004,0.050509177148342133,
4.6299999999999999,0.054331623017787933,
4.6325000000000003,0.062745809555053711,
4.6349999999999998,0.067313514649868011,
4.6375000000000002,0.072145663201808929,
4.6399999999999997,0.077218219637870789,
4.6425000000000001,0.087940298020839691,
4.6449999999999996,0.093565784394741058,
4.6475,0.099407635629177094,
4.6500000000000004,0.10539373010396957,
4.6524999999999999,0.11782269179821014,
4.6550000000000002,0.12424151599407196,
4.6574999999999998,0.13078054785728455,
4.6600000000000001,0.13736765086650848,
4.6624999999999996,0.15054187178611755,
4.665,0.15700876712799072,
4.6675000000000004,0.16328334808349609,
4.6699999999999999,0.16929349303245544,
4.6725000000000003,0.18025597929954529,
4.6749999999999998,0.18504004180431366,
4.6775000000000002,0.18931925296783447,
4.6799999999999997,0.1930215060710907,
4.6825000000000001,0.19867102801799774,
4.6849999999999996,0.20059427618980408,
4.6875,0.20191650092601776,
4.6900000000000004,0.20258963108062744,
4.6924999999999999,0.20191650092601776,
4.6950000000000003,0.20049810409545898,
4.6974999999999998,0.19823829829692841,
4.7000000000000002,0.19511303305625916,
4.7024999999999997,0.18588146567344666,
4.7050000000000001,0.17970304191112518,
4.7074999999999996,0.17241875827312469,
4.71,0.16410073637962341,
4.7125000000000004,0.14450769126415253,
4.7149999999999999,0.13347308337688446,
4.7175000000000002,0.12183745950460434,
4.7199999999999998,0.10974507033824921,
4.7225000000000001,0.085151597857475281,
4.7249999999999996,0.073035165667533875,
4.7275,0.061279337853193283,
4.7300000000000004,0.050028365105390549,
4.7324999999999999,0.029449662193655968,
4.7350000000000003,0.020242135971784592,
4.7374999999999998,0.011731783859431744,
4.7400000000000002,0.0039426488801836967,
4.7424999999999997,-0.0096642971038818359,
4.7450000000000001,-0.015578269958496094,
4.7474999999999996,-0.020939311012625694,
4.75,-0.025771459564566612,
4.7525000000000004,-0.033945243805646896,
4.7549999999999999,-0.037334959954023361,
4.7575000000000003,-0.04029194638133049,
4.7599999999999998,-0.042792163789272308,
4.7625000000000002,-0.046662688255310059,
4.7649999999999997,-0.048105120658874512,
4.7675000000000001,-0.049235027283430099,
4.7699999999999996,-0.050124526023864746,
4.7725,-0.051374636590480804,
4.7750000000000004,-0.05180736631155014,
4.7774999999999999,-0.052192013710737228,
4.7800000000000002,-0.052552621811628342,
4.7824999999999998,-0.053321920335292816,
4.7850000000000001,-0.053730607032775879,
4.7874999999999996,-0.054187379777431488,
4.79,-0.054668188095092773,
4.7925000000000004,-0.055581729859113693,
4.7949999999999999,-0.055942337960004807,
4.7975000000000003,-0.056206785142421722,
4.7999999999999998,-0.056351028382778168,
4.8025000000000002,-0.056158702820539474,
4.8049999999999997,-0.055870216339826584,
4.8075000000000001,-0.055461525917053223,
4.8099999999999996,-0.054980717599391937,
4.8125,-0.054043136537075043,
4.8150000000000004,-0.053706567734479904,
4.8174999999999999,-0.053490202873945236,
4.8200000000000003,-0.053418081253767014,
4.8224999999999998,-0.053682528436183929,
4.8250000000000002,-0.05397101491689682,
4.8274999999999997,-0.05430757999420166,
4.8300000000000001,-0.054620109498500824,
4.8324999999999996,-0.055004756897687912,
4.835,-0.055028796195983887,
4.8375000000000004,-0.054908595979213715,
4.8399999999999999,-0.054668188095092773,
4.8425000000000002,-0.053946971893310547,
4.8449999999999998,-0.053514242172241211,
4.8475000000000001,-0.0530574731528759,
4.8499999999999996,-0.052576661109924316,
4.8525,-0.05168716236948967,
4.8550000000000004,-0.051278471946716309,
4.8574999999999999,-0.050869785249233246,
4.8600000000000003,-0.050485134124755859,
4.8624999999999998,-0.049812000244855881,
4.8650000000000002,-0.04952351376414299,
4.8674999999999997,-0.049283109605312347,
4.8700000000000001,-0.049066744744777679,
4.8724999999999996,-0.048730175942182541,
4.875,-0.048561893403530121,
4.8775000000000004,-0.048369567841291428,
4.8799999999999999,-0.048081081360578537,
4.8825000000000003,-0.047143500298261642,
4.8849999999999998,-0.046470366418361664,
4.8875000000000002,-0.045628946274518967,
4.8899999999999997,-0.044643282890319824,
4.8925000000000001,-0.042407512664794922,
4.8949999999999996,-0.041181445121765137,
4.8975,-0.040003459900617599,
4.9000000000000004,-0.038849513977766037,
4.9024999999999999,-0.036782026290893555,
4.9050000000000002,-0.035892527550458908,
4.9074999999999998,-0.035123229026794434,
4.9100000000000001,-0.034450095146894455,
4.9124999999999996,-0.033368270844221115,
4.915,-0.032935541123151779,
4.9175000000000004,-0.032574933022260666,
4.9199999999999999,-0.032286446541547775,
4.9225000000000003,-0.031829677522182465,
4.9249999999999998,-0.031685434281826019,
4.9275000000000002,-0.031565230339765549,
4.9299999999999997,-0.031517148017883301,
4.9325000000000001,-0.031493108719587326,
4.9349999999999996,-0.031565230339765549,
4.9375,-0.031637351959943771,
4.9400000000000004,-0.031757555902004242,
4.9424999999999999,-0.031949877738952637,
4.9450000000000003,-0.03197392076253891,
4.9474999999999998,-0.031925838440656662,
4.9500000000000002,-0.031733512878417969,
4.9524999999999997,-0.030892094597220421,
4.9550000000000001,-0.030170878395438194,
4.9574999999999996,-0.029281377792358398,
4.96,-0.028271675109863281,
4.9625000000000004,-0.025939743965864182,
4.9649999999999999,-0.024809837341308594,
4.9675000000000002,-0.023752054199576378,
4.9699999999999998,-0.022886594757437706,
4.9725000000000001,-0.02182881161570549,
4.9749999999999996,-0.021732648834586143,
4.9775,-0.021876892074942589,
4.9800000000000004,-0.022285580635070801,
4.9824999999999999,-0.023583769798278809,
4.9850000000000003,-0.024304986000061035,
4.9874999999999998,-0.024930041283369064,
4.9900000000000002,-0.025386810302734375,
4.9924999999999997,-0.025482973083853722,
4.9950000000000001,-0.02507428452372551,
4.9974999999999996,-0.024353068321943283,
5,-0.023367404937744141,84.1683349609375
5.0025000000000004,-0.020939311012625694,
5.0049999999999999,-0.01966516301035881,
5.0075000000000003,-0.018511217087507248,
5.0099999999999998,-0.017525553703308105,
5.0125000000000002,-0.016275446861982346,
5.0149999999999997,-0.016059082001447678,
5.0175000000000001,-0.016107162460684776,
5.0199999999999996,-0.016395648941397667,
5.0225,-0.017429392784833908,
5.0250000000000004,-0.018126567825675011,
5.0274999999999999,-0.018847784027457237,
5.0300000000000002,-0.019569000229239464,
5.0324999999999998,-0.020819108933210373,
5.0350000000000001,-0.021203756332397461,
5.0374999999999996,-0.02137204073369503,
5.04,-0.021227797493338585,
5.0425000000000004,-0.019785365089774132,
5.0449999999999999,-0.018415054306387901,
5.0475000000000003,-0.016587972640991211,
5.0499999999999998,-0.014376243576407433,
5.0525000000000002,-0.0091594457626342773,
5.0549999999999997,-0.0064669055864214897,
5.0575000000000001,-0.0038945674896240234,
5.0599999999999996,-0.0016587972640991211,
5.0625,0.0012501081218943,
5.0650000000000004,0.0017309188842773438,
5.0674999999999999,0.0015145540237426758,
5.0700000000000003,0.00060101354029029608,
5.0724999999999998,-0.0027646622620522976,
5.0750000000000002,-0.0049042701721191406,
5.0774999999999997,-0.007043878547847271,
5.0800000000000001,-0.0089430809020996094,
5.0824999999999996,-0.010938446037471294,
5.085,-0.010553797706961632,
5.0875000000000004,-0.0089911622926592827,
5.0899999999999999,-0.0062024593353271484,
5.0925000000000002,0.0030771892052143812,
5.0949999999999998,0.0092315673828125,
5.0975000000000001,0.016059082001447678,
5.0999999999999996,0.023127000778913498,
5.1025,0.036325257271528244,
5.1050000000000004,0.041590135544538498,
5.1074999999999999,0.045484703034162521,
5.1100000000000003,0.047720473259687424,
5.1124999999999998,0.046927135437726974,
5.1150000000000002,0.04399418830871582,
5.1174999999999997,0.039618812501430511,
5.1200000000000001,0.03413756936788559,
5.1224999999999996,0.021323960274457932,
5.125,0.014712810516357422,
5.1275000000000004,0.0083661079406738281,
5.1299999999999999,0.0025482974015176296,
5.1325000000000003,-0.0072121620178222656,
5.1349999999999998,-0.011130770668387413,
5.1375000000000002,-0.014496445655822754,
5.1399999999999997,-0.017477473244071007,
5.1425000000000001,-0.022694271057844162,
5.1449999999999996,-0.025050243362784386,
5.1475,-0.027213891968131065,
5.1500000000000004,-0.029040973633527756,
5.1524999999999999,-0.030988257378339767,
5.1550000000000002,-0.030675729736685753,
5.1574999999999998,-0.029305418953299522,
5.1600000000000001,-0.026925405487418175,
5.1624999999999996,-0.019977688789367676,
5.165,-0.016515851020812988,
5.1675000000000004,-0.014135837554931641,
5.1699999999999999,-0.016419690102338791,
5.1725000000000003,-0.022982757538557053,
5.1749999999999998,-0.034113526344299316,
5.1775000000000002,-0.050052404403686523,
5.1799999999999997,-0.070534944534301758,
5.1825000000000001,-0.12123644351959229,
5.1849999999999996,-0.14796952903270721,
5.1875,-0.17239472270011902,
5.1900000000000004,-0.20232519507408142,
5.1924999999999999,-0.20153185725212097,
5.1950000000000003,-0.18619398772716522,
5.1974999999999998,-0.15390753746032715,
5.2000000000000002,-0.032839380204677582,
5.2024999999999997,0.055870216339826584,
5.2050000000000001,0.16097545623779297,
5.2074999999999996,0.27882218360900879,
5.21,0.40419360995292664,
5.2125000000000004,0.6506812572479248,
5.2149999999999999,0.75665199756622314,
5.2175000000000002,0.84096217155456543,
5.2199999999999998,0.9204401969909668,
5.2225000000000001,0.90822756290435791,
5.2249999999999996,0.86057925224304199,
5.2275,0.78030788898468018,
5.2300000000000004,0.67284667491912842,
5.2324999999999999,0.40743908286094666,
5.2350000000000003,0.26759526133537292,
5.2374999999999998,0.13493955135345459,
5.2400000000000002,0.01709282398223877,
5.2424999999999997,-0.15400370955467224,
5.2450000000000001,-0.20304641127586365,
5.2474999999999996,-0.22888998687267303,
5.25,-0.22494733333587646,
5.2525000000000004,-0.20463308691978455,
5.2549999999999999,-0.17862121760845184,
5.2575000000000003,-0.15123903751373291,
5.2599999999999998,-0.10435998439788818,
5.2625000000000002,-0.087988376617431641,
5.2649999999999997,-0.076665282249450684,
5.2675000000000001,-0.069621406495571136,
5.2699999999999996,-0.063659355044364929,
5.2725,-0.062240958213806152,
5.2750000000000004,-0.060606203973293304,
5.2774999999999999,-0.058202147483825684,
5.2800000000000002,-0.050581298768520355,
5.2824999999999998,-0.045773189514875412,
5.2850000000000001,-0.040796797722578049,
5.2874999999999996,-0.036036770790815353,
5.29,-0.028247635811567307,
5.2925000000000004,-0.025410851463675499,
5.2949999999999999,-0.023247202858328819,
5.2975000000000003,-0.021588405594229698,
5.2999999999999998,-0.018967986106872559,
5.3025000000000002,-0.017669796943664551,
5.3049999999999997,-0.016227364540100098,
5.3075000000000001,-0.014568567276000977,
5.3099999999999996,-0.010722081176936626,
5.3125,-0.0086786355823278427,
5.3150000000000004,-0.0066351890563964844,
5.3174999999999999,-0.0046879053115844727,
5.3200000000000003,-0.001033743261359632,
5.3224999999999998,0.00069717568112537265,
5.3250000000000002,0.0024521350860595703,
5.3274999999999997,0.0042792162857949734,
5.3300000000000001,0.0083661079406738281,
5.3324999999999996,0.010625919327139854,
5.335,0.013029973022639751,
5.3375000000000004,0.015482108108699322,
5.3399999999999999,0.020242135971784592,
5.3425000000000002,0.02245386503636837,
5.3449999999999998,0.024473270401358604,
5.3475000000000001,0.026300352066755295,
5.3499999999999996,0.029593905434012413,
5.3525,0.031156539916992188,
5.3550000000000004,0.032791297882795334,
5.3574999999999999,0.034546256065368652,
5.3600000000000003,0.038609109818935394,
5.3624999999999998,0.040989123284816742,
5.3650000000000002,0.043585501611232758,
5.3674999999999997,0.046446323394775391,
5.3700000000000001,0.052793025970458984,
5.3724999999999996,0.056278906762599945,
5.375,0.059957109391689301,
5.3775000000000004,0.063803598284721375,
5.3799999999999999,0.07209758460521698,
5.3825000000000003,0.076569125056266785,
5.3849999999999998,0.081281065940856934,
5.3875000000000002,0.086257457733154297,
5.3899999999999997,0.097027622163295746,
5.3925000000000001,0.10286947339773178,
5.3949999999999996,0.10899981111288071,
5.3975,0.11537055671215057,
5.4000000000000004,0.12878517806529999,
5.4024999999999999,0.13570885360240936,
5.4050000000000002,0.14265656471252441,
5.4074999999999998,0.14955620467662811,
5.4100000000000001,0.1629948616027832,
5.4124999999999996,0.16936561465263367,
5.415,0.17542383074760437,
5.4175000000000004,0.18109738826751709,
5.4199999999999999,0.19119441509246826,
5.4225000000000003,0.19549767673015594,
5.4249999999999998,0.19932012259960175,
5.4275000000000002,0.20258963108062744,
5.4299999999999997,0.20751795172691345,
5.4325000000000001,0.20917674899101257,
5.4349999999999996,0.21030664443969727,
5.4375,0.21093170344829559,
5.4400000000000004,0.21049897372722626,
5.4424999999999999,0.20939311385154724,
5.4450000000000003,0.20763814449310303,
5.4474999999999998,0.20511388778686523,
5.4500000000000002,0.19737283885478973,
5.4524999999999997,0.19196371734142303,
5.4550000000000001,0.18542468547821045,
5.4574999999999996,0.17777979373931885,
5.46,0.15922050178050995,
5.4625000000000004,0.14859458804130554,
5.4649999999999999,0.13729552924633026,
5.4675000000000002,0.12558779120445251,
5.4699999999999998,0.10188381373882294,
5.4725000000000001,0.090344354510307312,
5.4749999999999996,0.079285703599452972,
5.4775,0.068804025650024414,
5.4800000000000004,0.049860082566738129,
5.4824999999999999,0.041445892304182053,
5.4850000000000003,0.03368079662322998,
5.4874999999999998,0.026516716927289963,
5.4900000000000002,0.013871392235159874,
5.4924999999999997,0.0083180274814367294,
5.4950000000000001,0.0032214324455708265,
5.4974999999999996,-0.0013943513622507453,
5.5,-0.0093277301639318466,
5.5025000000000004,-0.012645324692130089,
5.5049999999999999,-0.015602311119437218,
5.5075000000000003,-0.018198689445853233,
5.5099999999999998,-0.022550027817487717,
5.5125000000000002,-0.024353068321943283,
5.5149999999999997,-0.02598782442510128,
5.5175000000000001,-0.027430256828665733,
5.5199999999999996,-0.029738148674368858,
5.5225,-0.030531486496329308,
5.5250000000000004,-0.03106037899851799,
5.5274999999999999,-0.031300783157348633,
5.5300000000000002,-0.030988257378339767,
5.5324999999999998,-0.030531486496329308,
5.5350000000000001,-0.029954513534903526,
5.5374999999999996,-0.029401581734418869,
5.54,-0.028800567612051964,
5.5425000000000004,-0.028944810852408409,
5.5449999999999999,-0.029449662193655968,
5.5475000000000003,-0.030339162796735764,
5.5499999999999998,-0.032959580421447754,
5.5525000000000002,-0.034498177468776703,
5.5549999999999997,-0.036036770790815353,
5.5575000000000001,-0.037407081574201584,
5.5599999999999996,-0.038488905876874924,
5.5625,-0.039498608559370041,
5.5650000000000004,-0.039354365319013596,
5.5674999999999999,-0.038849513977766037,
5.5700000000000003,-0.037022434175014496,
5.5724999999999998,-0.035964649170637131,
5.5750000000000002,-0.034978985786437988,
5.5774999999999997,-0.034161608666181564,
5.5800000000000001,-0.03334423154592514,
5.5824999999999996,-0.03334423154592514,
5.585,-0.033584635704755783,
5.5875000000000004,-0.033921204507350922,
5.5899999999999999,-0.034522216767072678,
5.5925000000000002,-0.034618377685546875,
5.5949999999999998,-0.034450095146894455,
5.5975000000000001,-0.034041404724121094,
5.5999999999999996,-0.032598972320556641,
5.6025,-0.031685434281826019,
5.6050000000000004,-0.030771892517805099,
5.6074999999999999,-0.029930472373962402,
5.6100000000000003,-0.028656324371695518,
5.6124999999999998,-0.028223594650626183,
5.6150000000000002,-0.027862986549735069,
5.6174999999999997,-0.02752641960978508,
5.6200000000000001,-0.02661287784576416,
5.6224999999999996,-0.025891661643981934,
5.625,-0.024954080581665039,
5.6275000000000004,-0.023824175819754601,
5.6299999999999999,-0.021155675873160362,
5.6325000000000003,-0.019737284630537033,
5.6349999999999998,-0.018366973847150803,
5.6375000000000002,-0.017068784683942795,
5.6399999999999997,-0.014857053756713867,
5.6425000000000001,-0.013919472694396973,
5.6449999999999996,-0.013029973022639751,
5.6475,-0.012188553810119629,
5.6500000000000004,-0.010385513305664062,
5.6524999999999999,-0.0093998517841100693,
5.6550000000000002,-0.0083661079406738281,
5.6574999999999998,-0.0073083243332803249,
5.6600000000000001,-0.0052408380433917046,
5.6624999999999996,-0.00430325698107481,
5.665,-0.0034858784638345242,
5.6675000000000004,-0.0027646622620522976,
5.6699999999999999,-0.0017309188842773438,
5.6725000000000003,-0.0013462703209370375,
5.6749999999999998,-0.0010577838402241468,
5.6775000000000002,-0.00081737840082496405,
5.6799999999999997,-0.00045677027083002031,
5.6825000000000001,-0.00033656758023425937,
5.6849999999999996,-0.00021636486053466797,
5.6875,-9.6162162662949413e-05,
5.6900000000000004,0.00019232432532589883,
5.6924999999999999,0.00038464865065179765,
5.6950000000000003,0.00060101354029029608,
5.6974999999999998,0.00086545944213867188,
5.7000000000000002,0.0014183919411152601,
5.7024999999999997,0.0016587972640991211,
5.7050000000000001,0.0018751621246337891,
5.7074999999999996,0.0019953649025410414,
5.71,0.0019472837448120117,
5.7125000000000004,0.0017790000420063734,
5.7149999999999999,0.0014905135612934828,
5.7175000000000002,0.0011299054604023695,
5.7199999999999998,0.00026444596005603671,
5.7225000000000001,-0.00016828379011712968,
5.7249999999999996,-0.00052889192011207342,
5.7275,-0.00079333782196044922,
5.7300000000000004,-0.0008895000210031867,
5.7324999999999999,-0.00062505406094714999,
5.7350000000000003,-0.00012020270514767617,
5.7374999999999998,0.00064909458160400391,
5.7400000000000002,0.0030291080474853516,
5.7424999999999997,0.00461578369140625,
5.7450000000000001,0.0064188241958618164,
5.7474999999999996,0.0083901491016149521,
5.75,0.012549161911010742,
5.7525000000000004,0.014544527046382427,
5.7549999999999999,0.016371607780456543,
5.7575000000000003,0.017934244126081467,
5.7599999999999998,0.0200017299503088,
5.7625000000000002,0.020410418510437012,
5.7649999999999997,0.020362338051199913,
5.7675000000000001,0.019905567169189453,
5.7699999999999996,0.018030405044555664,
5.7725,0.016876459121704102,
5.7750000000000004,0.015770595520734787,
5.7774999999999999,0.01490513514727354,
5.7800000000000002,0.014784932136535645,
5.7824999999999998,0.015890797600150108,
5.7850000000000001,0.017958283424377441,
5.7874999999999996,0.02108355425298214,
5.79,0.025218527764081955,
5.7925000000000004,0.035940609872341156,
5.7949999999999999,0.041998825967311859,
5.7975000000000003,0.048032999038696289,
5.7999999999999998,0.058370433747768402,
5.8025000000000002,0.061880350112915039,
5.8049999999999997,0.063851676881313324,
5.8075000000000001,0.064140163362026215,
5.8099999999999996,0.059620540589094162,
5.8125,0.055124960839748383,
5.8150000000000004,0.049499474465847015,
5.8174999999999999,0.043176811188459396,
5.8200000000000003,0.029882391914725304,
5.8224999999999998,0.023655891418457031,
5.8250000000000002,0.018054446205496788,
5.8274999999999997,0.013246337883174419,
5.8300000000000001,0.0061303377151489258,
5.8324999999999996,0.0037022433243691921,
5.835,0.0018270810833200812,
5.8375000000000004,0.000312527030473575,
5.8399999999999999,-0.0022117297630757093,
5.8425000000000002,-0.0034377973061054945,
5.8449999999999998,-0.0046638650819659233,
5.8475000000000001,-0.0057937703095376492,
5.8499999999999996,-0.0070198378525674343,
5.8525,-0.006707310676574707,
5.8550000000000004,-0.0055533647537231445,
5.8574999999999999,-0.0035580000840127468,
5.8600000000000003,0.0021155676804482937,
5.8624999999999998,0.0048081083223223686,
5.8650000000000002,0.0063947839662432671,
5.8674999999999997,0.0059380135498940945,
5.8700000000000001,-0.004784067627042532,
5.8724999999999996,-0.016491811722517014,
5.875,-0.032815337181091309,
5.8775000000000004,-0.053418081253767014,
5.8799999999999999,-0.10308583825826645,
5.8825000000000003,-0.12842456996440887,
5.8849999999999998,-0.150686115026474,
5.8875000000000002,-0.16684135794639587,
5.8899999999999997,-0.16804337501525879,
5.8925000000000001,-0.14720022678375244,
5.8949999999999996,-0.10895173251628876,
5.8975,-0.052047770470380783,
5.9000000000000004,0.11659662425518036,
5.9024999999999999,0.22425016760826111,
5.9050000000000002,0.3422170877456665,
5.9074999999999998,0.46482384204864502,
5.9100000000000001,0.6961899995803833,
5.9124999999999996,0.79006832838058472,
5.915,0.86002629995346069,
5.9175000000000004,0.9004865288734436,
5.9199999999999999,0.88050884008407593,
5.9225000000000003,0.8200228214263916,
5.9249999999999998,0.73015928268432617,
5.9275000000000002,0.6170966625213623,
5.9299999999999997,0.35373252630233765,
5.9325000000000001,0.22117297351360321,
5.9349999999999996,0.09904702752828598,
5.9375,-0.0060341758653521538,
5.9400000000000004,-0.14958024024963379,
5.9424999999999999,-0.18607378005981445,
5.9450000000000003,-0.2013154923915863,
5.9474999999999998,-0.1990797221660614,
5.9500000000000002,-0.16109566390514374,
5.9524999999999997,-0.13484339416027069,
5.9550000000000001,-0.10907193273305893,
5.9574999999999996,-0.086497865617275238,
5.96,-0.055966377258300781,
5.9625000000000004,-0.048008959740400314,
5.9649999999999999,-0.043729744851589203,
5.9675000000000002,-0.041854582726955414,
5.9699999999999998,-0.040195785462856293,
5.9725000000000001,-0.038561027497053146,
5.9749999999999996,-0.035772323608398438,
5.9775,-0.031853716820478439,
5.9800000000000004,-0.021660527214407921,
5.9824999999999999,-0.016275446861982346,
5.9850000000000003,-0.011250972747802734,
5.9874999999999998,-0.0068996353074908257,
5.9900000000000002,-0.00067313516046851873,
5.9924999999999997,0.0012501081218943,
5.9950000000000001,0.0025723378639668226,
5.9974999999999996,0.0035099189262837172,
6,0.0050244731828570366,83.478263854980469
6.0025000000000004,0.0058899326249957085,
6.0049999999999999,0.0069957971572875977,
6.0075000000000003,0.0083661079406738281,
6.0099999999999998,0.011900067329406738,
6.0125000000000002,0.013991594314575195,
6.0149999999999997,0.016227364540100098,
6.0175000000000001,0.018511217087507248,
6.0199999999999996,0.022982757538557053,
6.0225,0.025002162903547287,
6.0250000000000004,0.026829242706298828,
6.0274999999999999,0.028464000672101974,
6.0300000000000002,0.031084418296813965,
6.0324999999999998,0.032214324921369553,
6.0350000000000001,0.033296149224042892,
6.0374999999999996,0.034450095146894455,
6.04,0.037238799035549164,
6.0425000000000004,0.038969717919826508,
6.0449999999999999,0.040989123284816742,
6.0475000000000003,0.043200850486755371,
6.0499999999999998,0.048105120658874512,
6.0525000000000002,0.050629377365112305,
6.0549999999999997,0.053129594773054123,
6.0575000000000001,0.055533647537231445,
6.0599999999999996,0.060125391930341721,
6.0625,0.062409244477748871,
6.0650000000000004,0.064765214920043945,
6.0674999999999999,0.067289471626281738,
6.0700000000000003,0.073227487504482269,
6.0724999999999998,0.076761446893215179,
6.0750000000000002,0.080680057406425476,
6.0774999999999997,0.084983311593532562,
6.0800000000000001,0.094551444053649902,
6.0824999999999996,0.099672079086303711,
6.085,0.10496100038290024,
6.0875000000000004,0.11032204329967499,
6.0899999999999999,0.12126048654317856,
6.0925000000000002,0.1268138587474823,
6.0949999999999998,0.13248741626739502,
6.0975000000000001,0.13825714588165283,
6.0999999999999996,0.15020529925823212,
6.1025,0.15640775859355927,
6.1050000000000004,0.16270637512207031,
6.1074999999999999,0.16905307769775391,
6.1100000000000003,0.18162629008293152,
6.1124999999999998,0.18763642013072968,
6.1150000000000002,0.19328594207763672,
6.1174999999999997,0.19850274920463562,
6.1200000000000001,0.20708522200584412,
6.1224999999999996,0.21033069491386414,
6.125,0.21280686557292938,
6.1275000000000004,0.21453778445720673,
6.1299999999999999,0.21581193804740906,
6.1325000000000003,0.21547536551952362,
6.1349999999999998,0.21453778445720673,
6.1375000000000002,0.2130713164806366,
6.1399999999999997,0.20845553278923035,
6.1425000000000001,0.20521005988121033,
6.1449999999999996,0.20121932029724121,
6.1475,0.19643525779247284,
6.1500000000000004,0.18403033912181854,
6.1524999999999999,0.17633736133575439,
6.1550000000000002,0.167658731341362,
6.1574999999999998,0.15809059143066406,
6.1600000000000001,0.1367906779050827,
6.1624999999999996,0.12544354796409607,
6.165,0.11392812430858612,
6.1675000000000004,0.1023886650800705,
6.1699999999999999,0.080030962824821472,
6.1725000000000003,0.069429084658622742,
6.1749999999999998,0.059308014810085297,
6.1775000000000002,0.049715839326381683,
6.1799999999999997,0.032238364219665527,
6.1825000000000001,0.024353068321943283,
6.1849999999999996,0.01709282398223877,
6.1875,0.010505716316401958,
6.1900000000000004,-0.00064909458160400391,
6.1924999999999999,-0.0051687164232134819,
6.1950000000000003,-0.009015202522277832,
6.1974999999999998,-0.012212594971060753,
6.2000000000000002,-0.017020702362060547,
6.2024999999999997,-0.018847784027457237,
6.2050000000000001,-0.020434459671378136,
6.2074999999999996,-0.021876892074942589,
6.21,-0.024641554802656174,
6.2125000000000004,-0.026035904884338379,
6.2149999999999999,-0.027430256828665733,
6.2175000000000002,-0.028800567612051964,
6.2199999999999998,-0.031252704560756683,
6.2225000000000001,-0.032262407243251801,
6.2249999999999996,-0.033031702041625977,
6.2275,-0.033584635704755783,
6.2300000000000004,-0.033969283103942871,
6.2324999999999999,-0.033825039863586426,
6.2350000000000003,-0.033536553382873535,
6.2374999999999998,-0.033151905983686447,
6.2400000000000002,-0.032262407243251801,
6.2424999999999997,-0.031901799142360687,
6.2450000000000001,-0.031661391258239746,
6.2474999999999996,-0.031589269638061523,
6.25,-0.031949877738952637,
6.2525000000000004,-0.032382607460021973,
6.2549999999999999,-0.032959580421447754,
6.2575000000000003,-0.033656757324934006,
6.2599999999999998,-0.035171311348676682,
6.2625000000000002,-0.035916566848754883,
6.2649999999999997,-0.03658970445394516,
6.2675000000000001,-0.037190716713666916,
6.2699999999999996,-0.038032136857509613,
6.2725,-0.038320623338222504,
6.2750000000000004,-0.038536988198757172,
6.2774999999999999,-0.038729310035705566,
6.2800000000000002,-0.039017796516418457,
6.2824999999999998,-0.039138000458478928,
6.2850000000000001,-0.03921012207865715,
6.2874999999999996,-0.039186082780361176,
6.29,-0.038681231439113617,
6.2925000000000004,-0.038080215454101562,
6.2949999999999999,-0.037214756011962891,
6.2975000000000003,-0.036060810089111328,
6.2999999999999998,-0.033103823661804199,
6.3025000000000002,-0.031420987099409103,
6.3049999999999997,-0.029714107513427734,
6.3075000000000001,-0.028055310249328613,
6.3099999999999996,-0.025290649384260178,
6.3125,-0.024232864379882812,
6.3150000000000004,-0.023415487259626389,
6.3174999999999999,-0.022766392678022385,
6.3200000000000003,-0.021756689995527267,
6.3224999999999998,-0.021251838654279709,
6.3250000000000002,-0.02062678337097168,
6.3274999999999997,-0.019881527870893478,
6.3300000000000001,-0.01783808134496212,
6.3324999999999996,-0.016587972640991211,
6.335,-0.01521766185760498,
6.3375000000000004,-0.013823310844600201,
6.3399999999999999,-0.011178851127624512,
6.3425000000000002,-0.010048946365714073,
6.3449999999999998,-0.0091113653033971786,
6.3475000000000001,-0.0083661079406738281,
6.3499999999999996,-0.0074285268783569336,
6.3525,-0.007140040397644043,
6.3550000000000004,-0.0068996353074908257,
6.3574999999999999,-0.0066351890563964844,
6.3600000000000003,-0.0058658919297158718,
6.3624999999999998,-0.0052408380433917046,
6.3650000000000002,-0.0044475002214312553,
6.3674999999999997,-0.0034858784638345242,
6.3700000000000001,-0.0012981891632080078,
6.3724999999999996,-0.00016828379011712968,
6.375,0.00086545944213867188,
6.3775000000000004,0.0017790000420063734,
6.3799999999999999,0.0030050675850361586,
6.3825000000000003,0.0033175945281982422,
6.3849999999999998,0.0034137568436563015,
6.3875000000000002,0.0033897161483764648,
6.3899999999999997,0.0031012296676635742,
6.3925000000000001,0.0029089055024087429,
6.3949999999999996,0.0027165811043232679,
6.3975,0.0025482974015176296,
6.4000000000000004,0.0021636486053466797,
6.4024999999999999,0.0019232432823628187,
6.4050000000000002,0.0016347568016499281,
6.4074999999999998,0.0012981891632080078,
6.4100000000000001,0.00086545944213867188,
6.4124999999999996,-4.8081081331474707e-05,
6.415,-0.00048081082059070468,
6.4175000000000004,-0.00086545944213867188,
6.4199999999999999,-0.0013462703209370375,
6.4225000000000003,-0.0013943513622507453,
6.4249999999999998,-0.0013462703209370375,
6.4275000000000002,-0.0011539459228515625,
6.4299999999999997,-0.00045677027083002031,
6.4325000000000001,2.4040540665737353e-05,
6.4349999999999996,0.00055293244076892734,
6.4375,0.0011058648815378547,
6.4400000000000004,0.0021155676804482937,
6.4424999999999999,0.0025482974015176296,
6.4450000000000003,0.0028608243446797132,
6.4474999999999998,0.0031012296676635742,
6.4500000000000002,0.0032214324455708265,
6.4524999999999997,0.0031493108253926039,
6.4550000000000001,0.0030050675850361586,
6.4574999999999996,0.0028127431869506836,
6.46,0.002524256706237793,
6.4625000000000004,0.0025002162437886,
6.4649999999999999,0.0026444594841450453,
6.4675000000000002,0.0030050675850361586,
6.4699999999999998,0.0044715404510498047,
6.4725000000000001,0.0056495270691812038,
6.4749999999999996,0.007091959472745657,
6.4775,0.0087747974321246147,
6.4800000000000004,0.012573203071951866,
6.4824999999999999,0.014472405426204205,
6.4850000000000003,0.016203325241804123,
6.4874999999999998,0.017645757645368576,
6.4900000000000002,0.019256472587585449,
6.4924999999999997,0.019280513748526573,
6.4950000000000001,0.018799703568220139,
6.4974999999999996,0.01783808134496212,
6.5,0.01492917537689209,
6.5025000000000004,0.013318459503352642,
6.5049999999999999,0.01185198687016964,
6.5075000000000003,0.0107701625674963,
6.5099999999999998,0.010505716316401958,
6.5125000000000002,0.011659662239253521,
6.5149999999999997,0.013823310844600201,
6.5175000000000001,0.017044743523001671,
6.5199999999999996,0.02632439136505127,
6.5225,0.032118164002895355,
6.5250000000000004,0.038344662636518478,
6.5274999999999999,0.044667325913906097,
6.5300000000000002,0.056206785142421722,
6.5324999999999998,0.060702364891767502,
6.5350000000000001,0.063923798501491547,
6.5374999999999996,0.06565471738576889,
6.54,0.065774917602539062,
6.5425000000000004,0.06120721623301506,
6.5449999999999999,0.056831836700439453,
6.5475000000000003,0.051422715187072754,
6.5499999999999998,0.03892163559794426,
6.5525000000000002,0.032526850700378418,
6.5549999999999997,0.026372473686933517,
6.5575000000000001,0.020722946152091026,
6.5599999999999996,0.011178851127624512,
6.5625,0.0072362027131021023,
6.5650000000000004,0.0036782026290893555,
6.5674999999999999,0.00043272972106933594,
6.5700000000000003,-0.0057216486893594265,
6.5724999999999998,-0.0086545944213867188,
6.5750000000000002,-0.011419257149100304,
6.5774999999999997,-0.013799270614981651,
6.5800000000000001,-0.016443729400634766,
6.5824999999999996,-0.016155242919921875,
6.585,-0.014544527046382427,
6.5875000000000004,-0.011635622009634972,
6.5899999999999999,-0.0030050675850361586,
6.5925000000000002,0.0015626351814717054,
6.5949999999999998,0.0051206350326538086,
6.5975000000000001,0.0066351890563964844,
6.5999999999999996,-0.00064909458160400391,
6.6025,-0.01108268927782774,
6.6050000000000004,-0.026540756225585938,
6.6074999999999999,-0.046806931495666504,
6.6100000000000003,-0.097820959985256195,
6.6124999999999998,-0.12508293986320496,
6.6150000000000002,-0.15032550692558289,
6.6174999999999997,-0.17061571776866913,
6.6200000000000001,-0.18403033912181854,
6.6224999999999996,-0.17114460468292236,
6.625,-0.14186322689056396,
6.6275000000000004,-0.094503365457057953,
6.6299999999999999,0.055966377258300781,
6.6325000000000003,0.15667220950126648,
6.6349999999999998,0.27033588290214539,
6.6375000000000002,0.3921973705291748,
6.6399999999999997,0.63519918918609619,
6.6425000000000001,0.74184298515319824,
6.6449999999999996,0.82872551679611206,
6.6475,0.88937979936599731,
6.6500000000000004,0.91373288631439209,
6.6524999999999999,0.87401789426803589,
6.6550000000000002,0.80170392990112305,
6.6574999999999998,0.70150297880172729,
6.6600000000000001,0.44633668661117554,
6.6624999999999996,0.30870458483695984,
6.665,0.17621716856956482,
6.6675000000000004,0.05659143254160881,
6.6699999999999999,-0.12231826782226562,
6.6725000000000003,-0.17643353343009949,
6.6749999999999998,-0.20742177963256836,
6.6775000000000002,-0.21804770827293396,
6.6799999999999997,-0.19528131186962128,
6.6825000000000001,-0.17152926325798035,
6.6849999999999996,-0.14544527232646942,
6.6875,-0.12049119174480438,
6.6900000000000004,-0.08200228214263916,
6.6924999999999999,-0.069789692759513855,
6.6950000000000003,-0.061808228492736816,
6.6974999999999998,-0.056952040642499924,
6.7000000000000002,-0.051999688148498535,
6.7024999999999997,-0.049932204186916351,
6.7050000000000001,-0.047311782836914062,
6.7074999999999996,-0.043898027390241623,
6.71,-0.035291515290737152,
6.7125000000000004,-0.030699770897626877,
6.7149999999999999,-0.026372473686933517,
6.7175000000000002,-0.022574067115783691,
6.7199999999999998,-0.017020702362060547,
6.7225000000000001,-0.015241703018546104,
6.7249999999999996,-0.013943513855338097,
6.7275,-0.012909770011901855,
6.7300000000000004,-0.010866324417293072,
6.7324999999999999,-0.0095200538635253906,
6.7350000000000003,-0.0078612565994262695,
6.7374999999999998,-0.0058418512344360352,
6.7400000000000002,-0.00096162164118140936,
6.7424999999999997,0.0016828378429636359,
6.7450000000000001,0.0043272972106933594,
6.7474999999999996,0.006827513687312603,
6.75,0.011106729507446289,
6.7525000000000004,0.012789567932486534,
6.7549999999999999,0.014207959175109863,
6.7575000000000003,0.015434026718139648,
6.7599999999999998,0.017597675323486328,
6.7625000000000002,0.018727581948041916,
6.7649999999999997,0.019977688789367676,
6.7675000000000001,0.021420121192932129,
6.7699999999999996,0.024785798043012619,
6.7725,0.026684999465942383,
6.7750000000000004,0.028680365532636642,
6.7774999999999999,0.030723810195922852,
6.7800000000000002,0.034834742546081543,
6.7824999999999998,0.036902230232954025,
6.7850000000000001,0.038969717919826508,
6.7874999999999996,0.041061244904994965,
6.79,0.045556824654340744,
6.7925000000000004,0.04798492044210434,
6.7949999999999999,0.05060533806681633,
6.7975000000000003,0.053394041955471039,
6.7999999999999998,0.059620540589094162,
6.8025000000000002,0.063058339059352875,
6.8049999999999997,0.066688463091850281,
6.8075000000000001,0.070583030581474304,
6.8099999999999996,0.079045295715332031,
6.8125,0.083661079406738281,
6.8150000000000004,0.088493227958679199,
6.8174999999999999,0.093589827418327332,
6.8200000000000003,0.10443210601806641,
6.8224999999999998,0.110129714012146,
6.8250000000000002,0.1159956082701683,
6.8274999999999997,0.12202978134155273,
6.8300000000000001,0.13438662886619568,
6.8324999999999996,0.14068524539470673,
6.835,0.14698386192321777,
6.8375000000000004,0.15325844287872314,
6.8399999999999999,0.16544699668884277,
6.8425000000000002,0.17121672630310059,
6.8449999999999998,0.17664989829063416,
6.8475000000000001,0.18174648284912109,
6.8499999999999996,0.19061744213104248,
6.8525,0.19436776638031006,
6.8550000000000004,0.19770941138267517,
6.8574999999999999,0.20061831176280975,
6.8600000000000003,0.20311853289604187,
6.8624999999999998,0.20701310038566589,
6.8650000000000002,0.20833532512187958,
6.8674999999999997,0.20920078456401825,
6.8700000000000001,0.2090565413236618,
6.8724999999999996,0.20778238773345947,
6.875,0.20549854636192322,
6.8775000000000004,0.20206074416637421,
6.8799999999999999,0.19136270880699158,
6.8825000000000003,0.18400630354881287,
6.8849999999999998,0.17537574470043182,
6.8875000000000002,0.16559123992919922,
6.8899999999999997,0.14337778091430664,
6.8925000000000001,0.13140559196472168,
6.8949999999999996,0.11921703815460205,
6.8975,0.10702848434448242,
6.9000000000000004,0.083540879189968109,
6.9024999999999999,0.072530314326286316,
6.9050000000000002,0.06212075799703598,
6.9074999999999998,0.052360296249389648,
6.9100000000000001,0.03476262092590332,
6.9124999999999996,0.026853283867239952,
6.915,0.019520919770002365,
6.9175000000000004,0.012693405151367188,
6.9199999999999999,0.00045677027083002031,
6.9225000000000003,-0.0050244731828570366,
6.9249999999999998,-0.010097026824951172,
6.9275000000000002,-0.014784932136535645,
6.9299999999999997,-0.022982757538557053,
6.9325000000000001,-0.026540756225585938,
6.9349999999999996,-0.029714107513427734,
6.9375,-0.032526850700378418,
6.9400000000000004,-0.037022434175014496,
6.9424999999999999,-0.038729310035705566,
6.9450000000000003,-0.040051542222499847,
6.9474999999999998,-0.041061244904994965,
6.9500000000000002,-0.042143069207668304,
6.9524999999999997,-0.042335391044616699,
6.9550000000000001,-0.042383473366498947,
6.9574999999999996,-0.042335391044616699,
6.96,-0.04228731244802475,
6.9625000000000004,-0.042383473366498947,
6.9649999999999999,-0.04262387752532959,
6.9675000000000002,-0.042960446327924728,
6.9699999999999998,-0.043898027390241623,
6.9725000000000001,-0.044354796409606934,
6.9749999999999996,-0.04473944753408432,
6.9775,-0.044955812394618988,
6.9800000000000004,-0.044763486832380295,
6.9824999999999999,-0.044330757111310959,
6.9850000000000003,-0.04370570182800293,
6.9874999999999998,-0.042960446327924728,
6.9900000000000002,-0.041349731385707855,
6.9924999999999997,-0.040628515183925629,
6.9950000000000001,-0.040075581520795822,
6.9974999999999996,-0.039714973419904709,
7,-0.039642851799726486,82.840240478515625
7.0025000000000004,-0.039907298982143402,
7.0049999999999999,-0.040340028703212738,
7.0075000000000003,-0.040892958641052246,
7.0099999999999998,-0.042070947587490082,
7.0125000000000002,-0.042647920548915863,
7.0149999999999997,-0.043128728866577148,
7.0175000000000001,-0.04353741928935051,
7.0199999999999996,-0.044066309928894043,
7.0225,-0.044162474572658539,
7.0250000000000004,-0.044162474572658539,
7.0274999999999999,-0.044018231332302094,
7.0300000000000002,-0.043321054428815842,
7.0324999999999998,-0.042720042169094086,
7.0350000000000001,-0.041926704347133636,
7.0374999999999996,-0.040965080261230469,
7.04,-0.038705270737409592,
7.0425000000000004,-0.037527285516262054,
7.0449999999999999,-0.036397378891706467,
7.0475000000000003,-0.035411715507507324,
7.0499999999999998,-0.034113526344299316,
7.0525000000000002,-0.033825039863586426,
7.0549999999999997,-0.033776961266994476,
7.0575000000000001,-0.033897161483764648,
7.0599999999999996,-0.034281812608242035,
7.0625,-0.034353934228420258,
7.0650000000000004,-0.034209690988063812,
7.0674999999999999,-0.033801000565290451,
7.0700000000000003,-0.032214324921369553,
7.0724999999999998,-0.031108459457755089,
7.0750000000000002,-0.029906433075666428,
7.0774999999999997,-0.028704404830932617,
7.0800000000000001,-0.026709040626883507,
7.0824999999999996,-0.026035904884338379,
7.085,-0.025651257485151291,
7.0875000000000004,-0.025458931922912598,
7.0899999999999999,-0.02553105354309082,
7.0925000000000002,-0.025627216324210167,
7.0949999999999998,-0.025651257485151291,
7.0975000000000001,-0.02553105354309082,
7.0999999999999996,-0.024785798043012619,
7.1025,-0.024184783920645714,
7.1050000000000004,-0.023463567718863487,
7.1074999999999999,-0.022694271057844162,
7.1100000000000003,-0.021155675873160362,
7.1124999999999998,-0.020482540130615234,
7.1150000000000002,-0.019881527870893478,
7.1174999999999997,-0.01937667652964592,
7.1200000000000001,-0.018631419166922569,
7.1224999999999996,-0.018342932686209679,
7.125,-0.018102526664733887,
7.1275000000000004,-0.017910202965140343,
7.1299999999999999,-0.017573636025190353,
7.1325000000000003,-0.017429392784833908,
7.1349999999999998,-0.017285149544477463,
7.1375000000000002,-0.017140906304121017,
7.1399999999999997,-0.016876459121704102,
7.1425000000000001,-0.016708176583051682,
7.1449999999999996,-0.016515851020812988,
7.1475,-0.01629948616027832,
7.1500000000000004,-0.015722513198852539,
7.1524999999999999,-0.01538594625890255,
7.1550000000000002,-0.015001296997070312,
7.1574999999999998,-0.01461664866656065,
7.1600000000000001,-0.01384735107421875,
7.1624999999999996,-0.013486742973327637,
7.165,-0.013198256492614746,
7.1675000000000004,-0.012981891632080078,
7.1699999999999999,-0.012813608162105083,
7.1725000000000003,-0.012645324692130089,
7.1749999999999998,-0.012645324692130089,
7.1775000000000002,-0.012669364921748638,
7.1799999999999997,-0.012837648391723633,
7.1825000000000001,-0.012933811172842979,
7.1849999999999996,-0.013054013252258301,
7.1875,-0.013126134872436523,
7.1900000000000004,-0.013102094642817974,
7.1924999999999999,-0.012885729782283306,
7.1950000000000003,-0.012501081451773643,
7.1974999999999998,-0.011876027099788189,
7.2000000000000002,-0.0098085403442382812,
7.2024999999999997,-0.0083661079406738281,
7.2050000000000001,-0.0066832704469561577,
7.2074999999999996,-0.004784067627042532,
7.21,-0.0027646622620522976,
7.2125000000000004,0.0012981891632080078,
7.2149999999999999,0.0031493108253926039,
7.2175000000000002,0.0047600269317626953,
7.2199999999999998,0.006875594612210989,
7.2225000000000001,0.0072842836380004883,
7.2249999999999996,0.0071881217882037163,
7.2275,0.006611148826777935,
7.2300000000000004,0.0041830539703369141,
7.2324999999999999,0.0025482974015176296,
7.2350000000000003,0.00081737840082496405,
7.2374999999999998,-0.0007692973013035953,
7.2400000000000002,-0.0026444594841450453,
7.2424999999999997,-0.0024040541611611843,
7.2450000000000001,-0.0011539459228515625,
7.2474999999999996,0.0012981891632080078,
7.25,0.0098566217347979546,
7.2525000000000004,0.015698473900556564,
7.2549999999999999,0.022285580635070801,
7.2575000000000003,0.029209256172180176,
7.2599999999999998,0.042431555688381195,
7.2625000000000002,0.047864716500043869,
7.2649999999999997,0.051999688148498535,
7.2675000000000001,0.054596066474914551,
7.2699999999999996,0.054764352738857269,
7.2725,0.052408378571271896,
7.2750000000000004,0.048634015023708344,
7.2774999999999999,0.043729744851589203,
7.2800000000000002,0.031685434281826019,
7.2824999999999998,0.025098323822021484,
7.2850000000000001,0.018487175926566124,
7.2874999999999996,0.012020270340144634,
7.29,7.2121620178222656e-05,
7.2925000000000004,-0.0052167973481118679,
7.2949999999999999,-0.010024905204772949,
7.2975000000000003,-0.014352202415466309,
7.2999999999999998,-0.021420121192932129,
7.3025000000000002,-0.024208825081586838,
7.3049999999999997,-0.026420554146170616,
7.3075000000000001,-0.028007229790091515,
7.3099999999999996,-0.029016932472586632,
7.3125,-0.028199553489685059,
7.3150000000000004,-0.026396512985229492,
7.3174999999999999,-0.023631852120161057,
7.3200000000000003,-0.015914838761091232,
7.3224999999999998,-0.011731783859431744,
7.3250000000000002,-0.0081737842410802841,
7.3274999999999997,-0.0060582160949707031,
7.3300000000000001,-0.0099287433549761772,
7.3324999999999996,-0.017669796943664551,
7.335,-0.030074715614318848,
7.3375000000000004,-0.047335825860500336,
7.3399999999999999,-0.094551444053649902,
7.3425000000000002,-0.12210190296173096,
7.3449999999999998,-0.1497485339641571,
7.3475000000000001,-0.17489492893218994,
7.3499999999999996,-0.20559470355510712,
7.3525,-0.20477733016014099,
7.3550000000000004,-0.1891028881072998,
7.3574999999999999,-0.15616735816001892,
7.3600000000000003,-0.10419170558452606,
7.3624999999999998,0.058009825646877289,
7.3650000000000002,0.16544699668884277,
7.3674999999999997,0.28601032495498657,
7.3700000000000001,0.54406148195266724,
7.3724999999999996,0.66738945245742798,
7.375,0.77643734216690063,
7.3775000000000004,0.86348813772201538,
7.3799999999999999,0.94645202159881592,
7.3825000000000003,0.93467217683792114,
7.3849999999999998,0.88651895523071289,
7.3875000000000002,0.80485326051712036,
7.3899999999999997,0.56497675180435181,
7.3925000000000001,0.42349815368652344,
7.3949999999999996,0.28019249439239502,
7.3975,0.14421920478343964,
7.4000000000000004,-0.076641246676445007,
7.4024999999999999,-0.15232086181640625,
7.4050000000000002,-0.20287811756134033,
7.4074999999999998,-0.22977948188781738,
7.4100000000000001,-0.22718310356140137,
7.4124999999999996,-0.20734965801239014,
7.415,-0.18186669051647186,
7.4175000000000004,-0.15506148338317871,
7.4199999999999999,-0.10943254083395004,
7.4225000000000003,-0.093589827418327332,
7.4249999999999998,-0.082627341151237488,
7.4275000000000002,-0.075799822807312012,
7.4299999999999997,-0.069621406495571136,
7.4325000000000001,-0.067938566207885742,
7.4349999999999996,-0.065967246890068054,
7.4375,-0.063274703919887543,
7.4400000000000004,-0.055413447320461273,
7.4424999999999999,-0.050701498985290527,
7.4450000000000003,-0.045917432755231857,
7.4474999999999998,-0.041349731385707855,
7.4500000000000002,-0.03368079662322998,
7.4524999999999997,-0.030699770897626877,
7.4550000000000001,-0.028223594650626183,
7.4574999999999996,-0.026132067665457726,
7.46,-0.022718310356140137,
7.4625000000000004,-0.021179717034101486,
7.4649999999999999,-0.019737284630537033,
7.4675000000000002,-0.018318891525268555,
7.4699999999999998,-0.01567443273961544,
7.4725000000000001,-0.014400283806025982,
7.4749999999999996,-0.013150176033377647,
7.4775,-0.011827945709228516,
7.4800000000000004,-0.0088469190523028374,
7.4824999999999999,-0.0070679187774658203,
7.4850000000000003,-0.0050965948030352592,
7.4874999999999998,-0.0028848648071289062,
7.4900000000000002,0.0019713244400918484,
7.4924999999999997,0.0044715404510498047,
7.4950000000000001,0.006923675537109375,
7.4974999999999996,0.009255608543753624,
7.5,0.013270378112792969,
7.5025000000000004,0.01492917537689209,
7.5049999999999999,0.016395648941397667,
7.5075000000000003,0.017741918563842773,
7.5099999999999998,0.020362338051199913,
7.5125000000000002,0.021852850914001465,
7.5149999999999997,0.023511648178100586,
7.5175000000000001,0.025434892624616623,
7.5199999999999996,0.030050676316022873,
7.5225,0.032695136964321136,
7.5250000000000004,0.035531919449567795,
7.5274999999999999,0.038488905876874924,
7.5300000000000002,0.044763486832380295,
7.5324999999999998,0.048057042062282562,
7.5350000000000001,0.05151887983083725,
7.5374999999999996,0.055173039436340332,
7.54,0.06325066089630127,
7.5425000000000004,0.067770287394523621,
7.5449999999999999,0.072626471519470215,
7.5475000000000003,0.077867314219474792,
7.5499999999999998,0.089334651827812195,
7.5525000000000002,0.09551306813955307,
7.5549999999999997,0.10193189233541489,
7.5575000000000001,0.1085430383682251,
7.5599999999999996,0.1221499890089035,
7.5625,0.1290496289730072,
7.5650000000000004,0.13590118288993835,
7.5674999999999999,0.14270465075969696,
7.5700000000000003,0.15590290725231171,
7.5724999999999998,0.16220152378082275,
7.5750000000000002,0.16823570430278778,
7.5774999999999997,0.17398139834403992,
7.5800000000000001,0.18448710441589355,
7.5824999999999996,0.1891990602016449,
7.585,0.19355039298534393,
7.5875000000000004,0.19754111766815186,
7.5899999999999999,0.20420035719871521,
7.5925000000000002,0.20679673552513123,
7.5949999999999998,0.20886421203613281,
7.5975000000000001,0.21028260886669159,
7.5999999999999996,0.21083554625511169,
7.6025,0.20977775752544403,
7.6050000000000004,0.20773431658744812,
7.6074999999999999,0.20463308691978455,
7.6100000000000003,0.19506494700908661,
7.6124999999999998,0.18859803676605225,
7.6150000000000002,0.18107335269451141,
7.6174999999999997,0.17251491546630859,
7.6200000000000001,0.15275359153747559,
7.6224999999999996,0.14179110527038574,
7.625,0.13029973208904266,
7.6275000000000004,0.11844774335622787,
7.6299999999999999,0.094166800379753113,
7.6325000000000003,0.082074403762817383,
7.6349999999999998,0.070198379456996918,
7.6375000000000002,0.058682959526777267,
7.6399999999999997,0.037142634391784668,
7.6425000000000001,0.027310054749250412,
7.6449999999999996,0.018198689445853233,
7.6475,0.0098566217347979546,
7.6500000000000004,-0.0043753786012530327,
7.6524999999999999,-0.01028935145586729,
7.6550000000000002,-0.015434026718139648,
7.6574999999999998,-0.019857486709952354,
7.6600000000000001,-0.026877325028181076,
7.6624999999999996,-0.029666027054190636,
7.665,-0.032094120979309082,
7.6675000000000004,-0.03430585190653801,
7.6699999999999999,-0.038272541016340256,
7.6725000000000003,-0.040147703140974045,
7.6749999999999998,-0.041974782943725586,
7.6775000000000002,-0.043753784149885178,
