Data Set 1:Time(s),Data Set 1:EKG(mV),Data Set 1:Heart Rate(bpm)
0,0.21735052764415741,81.395347595214844
0.0025000000000000001,0.22247116267681122,
0.0050000000000000001,0.22730331122875214,
0.0074999999999999997,0.23172676563262939,
0.01,0.23559729754924774,
0.012500000000000001,0.23877064883708954,
0.014999999999999999,0.24232864379882812,
0.017500000000000002,0.24240076541900635,
0.02,0.2383379191160202,
0.022499999999999999,0.23398658633232117,
0.025000000000000001,0.22800049185752869,
0.0275,0.22042772173881531,
0.029999999999999999,0.20100295543670654,
0.032500000000000001,0.18955966830253601,
0.035000000000000003,0.17727494239807129,
0.037499999999999999,0.16446134448051453,
0.040000000000000001,0.13811290264129639,
0.042500000000000003,0.12496273219585419,
0.044999999999999998,0.11205296218395233,
0.047500000000000001,0.099431678652763367,
0.050000000000000003,0.075367093086242676,
0.052499999999999998,0.064019963145256042,
0.055,0.053177677094936371,
0.057500000000000002,0.042888324707746506,
0.059999999999999998,0.024136703461408615,
0.0625,0.015746554359793663,
0.065000000000000002,0.0080054998397827148,
0.067500000000000004,0.00091354054166004062,
0.070000000000000007,-0.011515418998897076,
0.072499999999999995,-0.016924541443586349,
0.074999999999999997,-0.021876892074942589,
0.077499999999999999,-0.026348432525992393,
0.080000000000000002,-0.033849082887172699,
0.082500000000000004,-0.036830108612775803,
0.085000000000000006,-0.039306282997131348,
0.087499999999999994,-0.041277609765529633,
0.089999999999999997,-0.043970149010419846,
0.092499999999999999,-0.04490773007273674,
0.095000000000000001,-0.045749150216579437,
0.097500000000000003,-0.046638648957014084,
0.10000000000000001,-0.048898458480834961,
0.10249999999999999,-0.050268769264221191,
0.105,-0.05168716236948967,
0.1075,-0.053033433854579926,
0.11,-0.054788392037153244,
0.1125,-0.054860513657331467,
0.115,-0.05430757999420166,
0.11749999999999999,-0.053153634071350098,
0.12,-0.049667757004499435,
0.1225,-0.047792594879865646,
0.125,-0.046181879937648773,
0.1275,-0.045027934014797211,
0.13,-0.044475000351667404,
0.13250000000000001,-0.044955812394618988,
0.13500000000000001,-0.045749150216579437,
0.13750000000000001,-0.046590566635131836,
0.14000000000000001,-0.047335825860500336,
0.14249999999999999,-0.046975217759609222,
0.14499999999999999,-0.046061675995588303,
0.14749999999999999,-0.04478752613067627,
0.14999999999999999,-0.042191147804260254,
0.1525,-0.041518013924360275,
0.155,-0.041614174842834473,
0.1575,-0.042671959847211838,
0.16,-0.047504108399152756,
0.16250000000000001,-0.050845742225646973,
0.16500000000000001,-0.054331623017787933,
0.16750000000000001,-0.057529013603925705,
0.17000000000000001,-0.061688028275966644,
0.17249999999999999,-0.062192879617214203,
0.17499999999999999,-0.061639945954084396,
0.17749999999999999,-0.060125391930341721,
0.17999999999999999,-0.055485568940639496,
0.1825,-0.053009390830993652,
0.185,-0.050845742225646973,
0.1875,-0.049186944961547852,
0.19,-0.04815320298075676,
0.1925,-0.047648351639509201,
0.19500000000000001,-0.047864716500043869,
0.19750000000000001,-0.048105120658874512,
0.20000000000000001,-0.048201285302639008,
0.20250000000000001,-0.047431986778974533,
0.20499999999999999,-0.046566527336835861,
0.20749999999999999,-0.045436620712280273,
0.20999999999999999,-0.042984485626220703,
0.21249999999999999,-0.041926704347133636,
0.215,-0.041157405823469162,
0.2175,-0.040700636804103851,
0.22,-0.040724676102399826,
0.2225,-0.041085284203290939,
0.22500000000000001,-0.041638217866420746,
0.22750000000000001,-0.042239230126142502,
0.23000000000000001,-0.043585501611232758,
0.23250000000000001,-0.044210553169250488,
0.23499999999999999,-0.044835608452558517,
0.23749999999999999,-0.045340459793806076,
0.23999999999999999,-0.045941472053527832,
0.24249999999999999,-0.045845311135053635,
0.245,-0.045388542115688324,
0.2475,-0.044499039649963379,
0.25,-0.04154205322265625,
0.2525,-0.039618812501430511,
0.255,-0.037599407136440277,
0.25750000000000001,-0.03567616268992424,
0.26000000000000001,-0.033031702041625977,
0.26250000000000001,-0.032623015344142914,
0.26500000000000001,-0.032935541123151779,
0.26750000000000002,-0.033945243805646896,
0.27000000000000002,-0.037455163896083832,
0.27250000000000002,-0.039498608559370041,
0.27500000000000002,-0.041421853005886078,
0.27750000000000002,-0.043008528649806976,
0.28000000000000003,-0.044523082673549652,
0.28249999999999997,-0.044402878731489182,
0.28499999999999998,-0.043729744851589203,
0.28749999999999998,-0.042671959847211838,
0.28999999999999998,-0.039979420602321625,
0.29249999999999998,-0.038633149117231369,
0.29499999999999998,-0.037431120872497559,
0.29749999999999999,-0.036397378891706467,
0.29999999999999999,-0.035531919449567795,
0.30249999999999999,-0.034209690988063812,
0.30499999999999999,-0.033656757324934006,
0.3075,-0.033127866685390472,
0.31,-0.03214220330119133,
0.3125,-0.031757555902004242,
0.315,-0.031469069421291351,
0.3175,-0.031372904777526855,
0.32000000000000001,-0.031733512878417969,
0.32250000000000001,-0.032190285623073578,
0.32500000000000001,-0.032743215560913086,
0.32750000000000001,-0.03334423154592514,
0.33000000000000002,-0.034329891204833984,
0.33250000000000002,-0.034570299088954926,
0.33500000000000002,-0.034570299088954926,
0.33750000000000002,-0.034329891204833984,
0.34000000000000002,-0.033151905983686447,
0.34250000000000003,-0.032286446541547775,
0.34499999999999997,-0.031276743859052658,
0.34749999999999998,-0.030170878395438194,
0.34999999999999998,-0.0276947021484375,
0.35249999999999998,-0.026300352066755295,
0.35499999999999998,-0.024809837341308594,
0.35749999999999998,-0.023223161697387695,
0.35999999999999999,-0.019857486709952354,
0.36249999999999999,-0.018246769905090332,
0.36499999999999999,-0.016780298203229904,
0.36749999999999999,-0.015626352280378342,
0.37,-0.014712810516357422,
0.3725,-0.015097459778189659,
0.375,-0.016059082001447678,
0.3775,-0.017525553703308105,
0.38,-0.021299919113516808,
0.38250000000000001,-0.023102959617972374,
0.38500000000000001,-0.024473270401358604,
0.38750000000000001,-0.025170445442199707,
0.39000000000000001,-0.023583769798278809,
0.39250000000000002,-0.021035473793745041,
0.39500000000000002,-0.017285149544477463,
0.39750000000000002,-0.01245300006121397,
0.40000000000000002,-0.00036060810089111328,
0.40250000000000002,0.0062986216507852077,
0.40500000000000003,0.012861689552664757,
0.40749999999999997,0.018943946808576584,
0.40999999999999998,0.02815147303044796,
0.41249999999999998,0.030627649277448654,
0.41499999999999998,0.031396947801113129,
0.41749999999999998,0.030339162796735764,
0.41999999999999998,0.022958716377615929,
0.42249999999999999,0.016996663063764572,
0.42499999999999999,0.0099527835845947266,
0.42749999999999999,0.0021876893006265163,
0.42999999999999999,-0.013679067604243755,
0.4325,-0.021011432632803917,
0.435,-0.02752641960978508,
0.4375,-0.032983623445034027,
0.44,-0.040556393563747406,
0.4425,-0.042792163789272308,
0.44500000000000001,-0.044210553169250488,
0.44750000000000001,-0.044979851692914963,
0.45000000000000001,-0.045484703034162521,
0.45250000000000001,-0.045460663735866547,
0.45500000000000002,-0.045364499092102051,
0.45750000000000002,-0.045124094933271408,
0.46000000000000002,-0.043753784149885178,
0.46250000000000002,-0.042335391044616699,
0.46500000000000002,-0.040315985679626465,
0.46750000000000003,-0.037743650376796722,
0.46999999999999997,-0.03214220330119133,
0.47249999999999998,-0.030122797936201096,
0.47499999999999998,-0.029617946594953537,
0.47749999999999998,-0.031493108719587326,
0.47999999999999998,-0.045532785356044769,
0.48249999999999998,-0.058731041848659515,
0.48499999999999999,-0.076064273715019226,
0.48749999999999999,-0.096979543566703796,
0.48999999999999999,-0.14400283992290497,
0.49249999999999999,-0.16595184803009033,
0.495,-0.18330912292003632,
0.4975,-0.19304554164409637,
0.5,-0.17777979373931885,
0.50249999999999995,-0.14775316417217255,
0.505,-0.10056158155202866,
0.50749999999999995,-0.03584444522857666,
0.51000000000000001,0.14123818278312683,
0.51249999999999996,0.2476656436920166,
0.51500000000000001,0.35976669192314148,
0.51749999999999996,0.47143501043319702,
0.52000000000000002,0.66633164882659912,
0.52249999999999996,0.73604923486709595,
0.52500000000000002,0.77963471412658691,
0.52749999999999997,0.79321765899658203,
0.53000000000000003,0.72573584318161011,
0.53249999999999997,0.64827722311019897,
0.53500000000000003,0.54788392782211304,
0.53749999999999998,0.43147963285446167,
0.54000000000000004,0.18292447924613953,
0.54249999999999998,0.06678462028503418,
0.54500000000000004,-0.034810703247785568,
0.54749999999999999,-0.11722167581319809,
0.55000000000000004,-0.21622061729431152,
0.55249999999999999,-0.2339625358581543,
0.55500000000000005,-0.23420295119285583,
0.5575,-0.22105276584625244,
0.56000000000000005,-0.17273128032684326,
0.5625,-0.14570972323417664,
0.56499999999999995,-0.12094795703887939,
0.5675,-0.10020097345113754,
0.56999999999999995,-0.073203444480895996,
0.57250000000000001,-0.066135525703430176,
0.57499999999999996,-0.062096714973449707,
0.57750000000000001,-0.059933066368103027,
0.57999999999999996,-0.057288609445095062,
0.58250000000000002,-0.055509608238935471,
0.58499999999999996,-0.053033433854579926,
0.58750000000000002,-0.049908161163330078,
0.58999999999999997,-0.042383473366498947,
0.59250000000000003,-0.038512945175170898,
0.59499999999999997,-0.034834742546081543,
0.59750000000000003,-0.031517148017883301,
0.59999999999999998,-0.026035904884338379,
0.60250000000000004,-0.023824175819754601,
0.60499999999999998,-0.021876892074942589,
0.60750000000000004,-0.020097892731428146,
0.60999999999999999,-0.016732215881347656,
0.61250000000000004,-0.014977256767451763,
0.61499999999999999,-0.013102094642817974,
0.61750000000000005,-0.011034607887268066,
0.62,-0.0062265000306069851,
0.62250000000000005,-0.0034858784638345242,
0.625,-0.00057697296142578125,
0.62749999999999995,0.0024280946236103773,
0.63,0.0082699460908770561,
0.63249999999999995,0.010866324417293072,
0.63500000000000001,0.013126134872436523,
0.63749999999999996,0.014953216537833214,
0.64000000000000001,0.017357271164655685,
0.64249999999999996,0.018054446205496788,
0.64500000000000002,0.018559297546744347,
0.64749999999999996,0.019064148887991905,
0.65000000000000002,0.020578702911734581,
0.65249999999999997,0.02182881161570549,
0.65500000000000003,0.023511648178100586,
0.65749999999999997,0.025651257485151291,
0.66000000000000003,0.031084418296813965,
0.66249999999999998,0.034281812608242035,
0.66500000000000004,0.037719607353210449,
0.66749999999999998,0.041325688362121582,
0.67000000000000004,0.049066744744777679,
0.67249999999999999,0.053201716393232346,
0.67500000000000004,0.05750497430562973,
0.67749999999999999,0.061928432434797287,
0.68000000000000005,0.07106383889913559,
0.6825,0.075607500970363617,
0.68500000000000005,0.080030962824821472,
0.6875,0.084286138415336609,
0.68999999999999995,0.092315673828125,
0.6925,0.096234284341335297,
0.69499999999999995,0.10024905204772949,
0.69750000000000001,0.10455231368541718,
0.69999999999999996,0.11443297564983368,
0.70250000000000001,0.12022674083709717,
0.70499999999999996,0.12652537226676941,
0.70750000000000002,0.13323268294334412,
0.70999999999999996,0.14710406959056854,
0.71250000000000002,0.15378734469413757,
0.71499999999999997,0.16003787517547607,
0.71750000000000003,0.16568741202354431,
0.71999999999999997,0.17503917217254639,
0.72250000000000003,0.17886161804199219,
0.72499999999999998,0.18225133419036865,
0.72750000000000004,0.18542468547821045,
0.72999999999999998,0.1916271448135376,
0.73250000000000004,0.19477646052837372,
0.73499999999999999,0.19787769019603729,
0.73750000000000004,0.20081064105033875,
0.73999999999999999,0.205234095454216,
0.74250000000000005,0.2061716765165329,
0.745,0.20590722560882568,
0.74750000000000005,0.20422439277172089,
0.75,0.1960986852645874,
0.75249999999999995,0.18960773944854736,
0.755,0.18160223960876465,
0.75749999999999995,0.17220239341259003,
0.76000000000000001,0.15018126368522644,
0.76249999999999996,0.13801674544811249,
0.76500000000000001,0.1254194974899292,
0.76749999999999996,0.11258184909820557,
0.77000000000000002,0.087074838578701019,
0.77249999999999996,0.074693962931632996,
0.77500000000000002,0.062721773982048035,
0.77749999999999997,0.051182311028242111,
0.78000000000000003,0.029545824974775314,
0.78249999999999997,0.01937667652964592,
0.78500000000000003,0.0096402568742632866,
0.78749999999999998,0.00024040541029535234,
0.79000000000000004,-0.017477473244071007,
0.79249999999999998,-0.025771459564566612,
0.79500000000000004,-0.033584635704755783,
0.79749999999999999,-0.040892958641052246,
0.80000000000000004,-0.053466163575649261,
0.80249999999999999,-0.05858679860830307,
0.80500000000000005,-0.062890052795410156,
0.8075,-0.066351890563964844,
0.81000000000000005,-0.07106383889913559,
0.8125,-0.072530314326286316,
0.81499999999999995,-0.073564052581787109,
0.8175,-0.074309311807155609,
0.81999999999999995,-0.075439214706420898,
0.82250000000000001,-0.07596810907125473,
0.82499999999999996,-0.076521039009094238,
0.82750000000000001,-0.077073976397514343,
0.82999999999999996,-0.078179836273193359,
0.83250000000000002,-0.078684687614440918,
0.83499999999999996,-0.079117417335510254,
0.83750000000000002,-0.07950206845998764,
0.83999999999999997,-0.080199241638183594,
0.84250000000000003,-0.08058389276266098,
0.84499999999999997,-0.081064701080322266,
0.84750000000000003,-0.081617638468742371,
0.84999999999999998,-0.083011984825134277,
0.85250000000000004,-0.08378128707408905,
0.85499999999999998,-0.0845746248960495,
0.85750000000000004,-0.085319876670837402,
0.85999999999999999,-0.085993014276027679,
0.86250000000000004,-0.087002716958522797,
0.86499999999999999,-0.087291203439235687,
0.86750000000000005,-0.087411403656005859,
0.87,-0.087387368083000183,
0.87250000000000005,-0.086786352097988129,
0.875,-0.086233422160148621,
0.87749999999999995,-0.085512205958366394,
0.88,-0.083685122430324554,
0.88249999999999995,-0.082627341151237488,
0.88500000000000001,-0.081569552421569824,
0.88749999999999996,-0.080535814166069031,
0.89000000000000001,-0.079598233103752136,
0.89249999999999996,-0.078107714653015137,
0.89500000000000002,-0.077578827738761902,
0.89749999999999996,-0.077170133590698242,
0.90000000000000002,-0.076593160629272461,
0.90249999999999997,-0.076328717172145844,
0.90500000000000003,-0.076088309288024902,
0.90749999999999997,-0.075871944427490234,
0.91000000000000003,-0.075559422373771667,
0.91249999999999998,-0.075535379350185394,
0.91500000000000004,-0.075655579566955566,
0.91749999999999998,-0.075944066047668457,
0.92000000000000004,-0.076857611536979675,
0.92249999999999999,-0.077410541474819183,
0.92500000000000004,-0.077891349792480469,
0.92749999999999999,-0.078203879296779633,
0.93000000000000005,-0.078035593032836914,
0.9325,-0.077434584498405457,
0.93500000000000005,-0.076472960412502289,
0.9375,-0.07522284984588623,
0.93999999999999995,-0.072241827845573425,
0.9425,-0.070751309394836426,
0.94499999999999995,-0.069453120231628418,
0.94750000000000001,-0.068443417549133301,
0.94999999999999996,-0.067553922533988953,
0.95250000000000001,-0.067650079727172852,
0.95499999999999996,-0.067986652255058289,
0.95750000000000002,-0.068443417549133301,
0.95999999999999996,-0.069020390510559082,
0.96250000000000002,-0.06885211169719696,
0.96499999999999997,-0.068227052688598633,
0.96750000000000003,-0.067145228385925293,
0.96999999999999997,-0.063803598284721375,
0.97250000000000003,-0.061856310814619064,
0.97499999999999998,-0.059957109391689301,
0.97750000000000004,-0.058322351425886154,
0.97999999999999998,-0.056567393243312836,
0.98250000000000004,-0.056567393243312836,
0.98499999999999999,-0.057144366204738617,
0.98750000000000004,-0.058178108185529709,
0.98999999999999999,-0.060846608132123947,
0.99250000000000005,-0.062072675675153732,
0.995,-0.062962174415588379,
0.99750000000000005,-0.063370868563652039,
1,-0.062721773982048035,81.2379150390625
1.0024999999999999,-0.061736106872558594,
1.0049999999999999,-0.060510039329528809,
1.0075000000000001,-0.059235893189907074,
1.01,-0.057192444801330566,
1.0125,-0.056687593460083008,
1.0149999999999999,-0.056639514863491058,
1.0175000000000001,-0.057048201560974121,
1.02,-0.058971446007490158,
1.0225,-0.060245595872402191,
1.0249999999999999,-0.061543785035610199,
1.0275000000000001,-0.062745809555053711,
1.03,-0.064428649842739105,
1.0325,-0.064789257943630219,
1.0349999999999999,-0.064765214920043945,
1.0375000000000001,-0.064380571246147156,
1.04,-0.062817931175231934,
1.0425,-0.061736106872558594,
1.0449999999999999,-0.060606203973293304,
1.0475000000000001,-0.059476297348737717,
1.05,-0.05755305290222168,
1.0525,-0.056855879724025726,
1.0549999999999999,-0.056375067681074142,
1.0575000000000001,-0.056062541902065277,
1.0600000000000001,-0.055918298661708832,
1.0625,-0.055918298661708832,
1.0649999999999999,-0.055894255638122559,
1.0674999999999999,-0.055774055421352386,
1.0700000000000001,-0.054884552955627441,
1.0725,-0.054067175835371017,
1.075,-0.052961312234401703,
1.0774999999999999,-0.051566958427429199,
1.0800000000000001,-0.048105120658874512,
1.0825,-0.0461578369140625,
1.085,-0.044162474572658539,
1.0874999999999999,-0.042239230126142502,
1.0900000000000001,-0.039113961160182953,
1.0925,-0.038176380097866058,
1.095,-0.037815771996974945,
1.0974999999999999,-0.038152337074279785,
1.1000000000000001,-0.040941040962934494,
1.1025,-0.043224893510341644,
1.105,-0.045845311135053635,
1.1074999999999999,-0.048513811081647873,
1.1100000000000001,-0.052624743431806564,
1.1125,-0.053345959633588791,
1.115,-0.05276898667216301,
1.1174999999999999,-0.050725542008876801,
1.1200000000000001,-0.042263269424438477,
1.1225000000000001,-0.036205053329467773,
1.125,-0.029353499412536621,
1.1274999999999999,-0.022189419716596603,
1.1299999999999999,-0.0087026758119463921,
1.1325000000000001,-0.0032695136032998562,
1.135,0.00084141892148181796,
1.1375,0.0034137568436563015,
1.1399999999999999,0.0036060810089111328,
1.1425000000000001,0.0013222297420725226,
1.145,-0.0023559730034321547,
1.1475,-0.0072362027131021023,
1.1499999999999999,-0.019328594207763672,
1.1525000000000001,-0.025963783264160156,
1.155,-0.032550893723964691,
1.1575,-0.038825474679470062,
1.1599999999999999,-0.049379270523786545,
1.1625000000000001,-0.053345959633588791,
1.165,-0.056351028382778168,
1.1675,-0.058466594666242599,
1.1699999999999999,-0.060582160949707031,
1.1725000000000001,-0.061014890670776367,
1.175,-0.061303377151489258,
1.1775,-0.061591863632202148,
1.1799999999999999,-0.062361162155866623,
1.1825000000000001,-0.062601566314697266,
1.1850000000000001,-0.062505409121513367,
1.1875,-0.06183227151632309,
1.1899999999999999,-0.057937704026699066,
1.1924999999999999,-0.054788392037153244,
1.1950000000000001,-0.051182311028242111,
1.1975,-0.047696433961391449,
1.2,-0.044619243592023849,
1.2024999999999999,-0.046999257057905197,
1.2050000000000001,-0.053201716393232346,
1.2075,-0.063899755477905273,
1.21,-0.099239349365234375,
1.2124999999999999,-0.12267887592315674,
1.2150000000000001,-0.14813780784606934,
1.2175,-0.17345249652862549,
1.22,-0.21275877952575684,
1.2224999999999999,-0.22062003612518311,
1.2250000000000001,-0.21653315424919128,
1.2275,-0.19787769019603729,
1.23,-0.10974507033824921,
1.2324999999999999,-0.039330326020717621,
1.2350000000000001,0.04719158262014389,
1.2375,0.14698386192321777,
1.24,0.36813279986381531,
1.2424999999999999,0.47770959138870239,
1.2450000000000001,0.57757401466369629,
1.2475000000000001,0.66097062826156616,
1.25,0.75496912002563477,
1.2524999999999999,0.75766170024871826,
1.2549999999999999,0.72888517379760742,
1.2575000000000001,0.67020219564437866,
1.26,0.48032999038696289,
1.2625,0.36231499910354614,
1.2649999999999999,0.23944377899169922,
1.2675000000000001,0.11969785392284393,
1.27,-0.082723498344421387,
1.2725,-0.15575866401195526,
1.2749999999999999,-0.20698904991149902,
1.2775000000000001,-0.23679932951927185,
1.28,-0.24232864379882812,
1.2825,-0.22590896487236023,
1.2849999999999999,-0.20263771712779999,
1.2875000000000001,-0.17669796943664551,
1.29,-0.12943427264690399,
1.2925,-0.11178851127624512,
1.2949999999999999,-0.098902784287929535,
1.2975000000000001,-0.090344354510307312,
1.3,-0.081978246569633484,
1.3025,-0.079790554940700531,
1.3049999999999999,-0.077578827738761902,
1.3075000000000001,-0.074717998504638672,
1.3100000000000001,-0.066135525703430176,
1.3125,-0.060726404190063477,
1.3149999999999999,-0.05505283921957016,
1.3174999999999999,-0.04952351376414299,
1.3200000000000001,-0.040147703140974045,
1.3225,-0.03658970445394516,
1.325,-0.033752918243408203,
1.3274999999999999,-0.031469069421291351,
1.3300000000000001,-0.027718743309378624,
1.3325,-0.025843581184744835,
1.335,-0.023752054199576378,
1.3374999999999999,-0.021444162353873253,
1.3400000000000001,-0.016491811722517014,
1.3425,-0.014111797325313091,
1.345,-0.012044310569763184,
1.3474999999999999,-0.010433594696223736,
1.3500000000000001,-0.0088709592819213867,
1.3525,-0.0088469190523028374,
1.355,-0.0091113653033971786,
1.3574999999999999,-0.0094719734042882919,
1.3600000000000001,-0.0093998517841100693,
1.3625,-0.0084863109514117241,
1.365,-0.0067794322967529297,
1.3674999999999999,-0.0042311353608965874,
1.3700000000000001,0.0030531487427651882,
1.3725000000000001,0.0073804459534585476,
1.375,0.011803905479609966,
1.3774999999999999,0.016059082001447678,
1.3799999999999999,0.023127000778913498,
1.3825000000000001,0.025675296783447266,
1.385,0.027598541229963303,
1.3875,0.028992891311645508,
1.3899999999999999,0.031036337837576866,
1.3925000000000001,0.032190285623073578,
1.395,0.033752918243408203,
1.3975,0.035892527550458908,
1.3999999999999999,0.042311351746320724,
1.4025000000000001,0.046542488038539886,
1.405,0.051302514970302582,
1.4075,0.056399106979370117,
1.4099999999999999,0.067000985145568848,
1.4125000000000001,0.072217784821987152,
1.415,0.077242255210876465,
1.4175,0.082098446786403656,
1.4199999999999999,0.091546379029750824,
1.4225000000000001,0.096402570605278015,
1.425,0.10147511959075928,
1.4275,0.10690828412771225,
1.4299999999999999,0.11890451610088348,
1.4325000000000001,0.12537142634391785,
1.4350000000000001,0.13193449378013611,
1.4375,0.13844947516918182,
1.4399999999999999,0.14467597007751465,
1.4424999999999999,0.15556633472442627,
1.4450000000000001,0.15994171798229218,
1.4475,0.16361992061138153,
1.45,0.16907712817192078,
1.4524999999999999,0.17114460468292236,
1.4550000000000001,0.17301976680755615,
1.4575,0.17482280731201172,
1.46,0.17859718203544617,
1.4624999999999999,0.18054446578025818,
1.4650000000000001,0.18241962790489197,
1.4675,0.183982253074646,
1.47,0.18544873595237732,
1.4724999999999999,0.18484771251678467,
1.4750000000000001,0.18311679363250732,
1.4775,0.18008768558502197,
1.48,0.16967813670635223,
1.4824999999999999,0.16227364540100098,
1.4850000000000001,0.15340268611907959,
1.4875,0.14316141605377197,
1.49,0.1192651242017746,
1.4924999999999999,0.10599474608898163,
1.4950000000000001,0.092171430587768555,
1.4975000000000001,0.07813175767660141,
1.5,0.050461094826459885,
1.5024999999999999,0.037407081574201584,
1.5049999999999999,0.025146406143903732,
1.5075000000000001,0.01384735107421875,
1.51,-0.0056976079940795898,
1.5125,-0.013991594314575195,
1.5149999999999999,-0.021444162353873253,
1.5175000000000001,-0.028175514191389084,
1.52,-0.040027499198913574,
1.5225,-0.045364499092102051,
1.5249999999999999,-0.050413012504577637,
1.5275000000000001,-0.055124960839748383,
1.53,-0.063467025756835938,
1.5325,-0.066952906548976898,
1.5349999999999999,-0.0699339359998703,
1.5375000000000001,-0.072337985038757324,
1.54,-0.075559422373771667,
1.5425,-0.076472960412502289,
1.5449999999999999,-0.077073976397514343,
1.5475000000000001,-0.077458620071411133,
1.55,-0.078011557459831238,
1.5525,-0.078324079513549805,
1.5549999999999999,-0.078732773661613464,
1.5575000000000001,-0.079189538955688477,
1.5600000000000001,-0.080127120018005371,
1.5625,-0.080511771142482758,
1.5649999999999999,-0.080824300646781921,
1.5674999999999999,-0.081016622483730316,
1.5700000000000001,-0.081160865724086761,
1.5725,-0.081184908747673035,
1.575,-0.081232987344264984,
1.5774999999999999,-0.081353187561035156,
1.5800000000000001,-0.081882081925868988,
1.5825,-0.082266733050346375,
1.585,-0.082651376724243164,
1.5874999999999999,-0.082987949252128601,
1.5900000000000001,-0.083228349685668945,
1.5925,-0.083036027848720551,
1.595,-0.082603298127651215,
1.5974999999999999,-0.081906124949455261,
1.6000000000000001,-0.079982876777648926,
1.6025,-0.078852973878383636,
1.605,-0.077723070979118347,
1.6074999999999999,-0.076689325273036957,
1.6100000000000001,-0.075246892869472504,
1.6125,-0.07493436336517334,
1.615,-0.074958406388759613,
1.6174999999999999,-0.075294971466064453,
1.6200000000000001,-0.076761446893215179,
1.6225000000000001,-0.077699027955532074,
1.625,-0.078636609017848969,
1.6274999999999999,-0.079478025436401367,
1.6299999999999999,-0.080415606498718262,
1.6325000000000001,-0.080391570925712585,
1.635,-0.080006919801235199,
1.6375,-0.079309746623039246,
1.6399999999999999,-0.077242255210876465,
1.6425000000000001,-0.076088309288024902,
1.645,-0.075006484985351562,
1.6475,-0.074020825326442719,
1.6499999999999999,-0.072506271302700043,
1.6525000000000001,-0.071953341364860535,
1.655,-0.071472525596618652,
1.6575,-0.070991717278957367,
1.6599999999999999,-0.069909892976284027,
1.6625000000000001,-0.069260798394680023,
1.665,-0.068491503596305847,
1.6675,-0.067698165774345398,
1.6699999999999999,-0.066015325486660004,
1.6725000000000001,-0.065149866044521332,
1.675,-0.064308449625968933,
1.6775,-0.063394904136657715,
1.6799999999999999,-0.061423581093549728,
1.6825000000000001,-0.060293674468994141,
1.6850000000000001,-0.059115689247846603,
1.6875,-0.057913661003112793,
1.6899999999999999,-0.055798094719648361,
1.6924999999999999,-0.055028796195983887,
1.6950000000000001,-0.054572027176618576,
1.6975,-0.054427783936262131,
1.7,-0.055028796195983887,
1.7024999999999999,-0.055581729859113693,
1.7050000000000001,-0.056182742118835449,
1.7075,-0.056639514863491058,
1.71,-0.056855879724025726,
1.7124999999999999,-0.056519310921430588,
1.7150000000000001,-0.055918298661708832,
1.7175,-0.055124960839748383,
1.72,-0.053490202873945236,
1.7224999999999999,-0.052865147590637207,
1.7250000000000001,-0.052480500191450119,
1.7275,-0.052408378571271896,
1.73,-0.053033433854579926,
1.7324999999999999,-0.053682528436183929,
1.7350000000000001,-0.054403744637966156,
1.7375,-0.055197082459926605,
1.74,-0.05659143254160881,
1.7424999999999999,-0.057144366204738617,
1.7450000000000001,-0.057529013603925705,
1.7475000000000001,-0.057697296142578125,
1.75,-0.057264566421508789,
1.7524999999999999,-0.056519310921430588,
1.7549999999999999,-0.055365364998579025,
1.7575000000000001,-0.053802728652954102,
1.76,-0.049547553062438965,
1.7625,-0.04707137867808342,
1.7649999999999999,-0.044523082673549652,
1.7675000000000001,-0.042094986885786057,
1.77,-0.038200419396162033,
1.7725,-0.036950312554836273,
1.7749999999999999,-0.036253135651350021,
1.7775000000000001,-0.036108892410993576,
1.78,-0.037094555795192719,
1.7825,-0.038104258477687836,
1.7849999999999999,-0.039306282997131348,
1.7875000000000001,-0.040700636804103851,
1.79,-0.043777823448181152,
1.7925,-0.045364499092102051,
1.7949999999999999,-0.046903096139431,
1.7975000000000001,-0.04827340692281723,
1.8,-0.049715839326381683,
1.8025,-0.049379270523786545,
1.8049999999999999,-0.048057042062282562,
1.8075000000000001,-0.045580863952636719,
1.8100000000000001,-0.037070512771606445,
1.8125,-0.031252704560756683,
1.8149999999999999,-0.024761756882071495,
1.8174999999999999,-0.018006365746259689,
1.8200000000000001,-0.0055774054490029812,
1.8225,-0.00084141892148181796,
1.825,0.0024040541611611843,
1.8274999999999999,0.0039186081849038601,
1.8300000000000001,0.001466472982428968,
1.8325,-0.002283851383253932,
1.835,-0.0073323650285601616,
1.8374999999999999,-0.013342499732971191,
1.8400000000000001,-0.026588838547468185,
1.8425,-0.033079784363508224,
1.845,-0.03904183954000473,
1.8474999999999999,-0.044258635491132736,
1.8500000000000001,-0.052071809768676758,
1.8525,-0.054692231118679047,
1.855,-0.056567393243312836,
1.8574999999999999,-0.057937704026699066,
1.8600000000000001,-0.059884987771511078,
1.8625,-0.060822568833827972,
1.865,-0.061904393136501312,
1.8674999999999999,-0.063130460679531097,
1.8700000000000001,-0.065582595765590668,
1.8725000000000001,-0.066375933587551117,
1.875,-0.066568255424499512,
1.8774999999999999,-0.06599128246307373,
1.8799999999999999,-0.062385201454162598,
1.8825000000000001,-0.059788823127746582,
1.885,-0.057336688041687012,
1.8875,-0.055701933801174164,
1.8899999999999999,-0.058442555367946625,
1.8925000000000001,-0.064452692866325378,
1.895,-0.074285268783569336,
1.8975,-0.088156662881374359,
1.8999999999999999,-0.12599647045135498,
1.9025000000000001,-0.14765700697898865,
1.905,-0.16874055564403534,
1.9075,-0.18681904673576355,
1.9099999999999999,-0.20307044684886932,
1.9125000000000001,-0.19576212763786316,
1.915,-0.17489492893218994,
1.9175,-0.13868987560272217,
1.9199999999999999,-0.017814040184020996,
1.9225000000000001,0.065342187881469727,
1.925,0.16044656932353973,
1.9275,0.26348432898521423,
1.9299999999999999,0.47181963920593262,
1.9325000000000001,0.56454402208328247,
1.9350000000000001,0.640968918800354,
1.9375,0.69534862041473389,
1.9399999999999999,0.72124028205871582,
1.9424999999999999,0.68929040431976318,
1.9450000000000001,0.62875628471374512,
1.9475,0.54355663061141968,
1.95,0.3237539529800415,
1.9524999999999999,0.20424842834472656,
1.9550000000000001,0.088829800486564636,
1.9575,-0.015554229728877544,
1.96,-0.17112056910991669,
1.9624999999999999,-0.21735052764415741,
1.9650000000000001,-0.24268925189971924,
1.9675,-0.24961292743682861,
1.97,-0.22374531626701355,
1.9724999999999999,-0.19987305998802185,
1.9750000000000001,-0.17429392039775848,
1.9775,-0.15020529925823212,
1.98,-0.11402428150177002,
1.9824999999999999,-0.10296563804149628,
1.9850000000000001,-0.095897719264030457,
1.9875,-0.091618500649929047,
1.99,-0.08628150075674057,
1.9924999999999999,-0.083108149468898773,
1.9950000000000001,-0.078780852258205414,
1.9975000000000001,-0.073251530528068542,
2,-0.059788823127746582,82.191780090332031
2.0024999999999999,-0.052961312234401703,
2.0049999999999999,-0.046758852899074554,
2.0074999999999998,-0.041590135544538498,
2.0099999999999998,-0.035075150430202484,
2.0125000000000002,-0.033584635704755783,
2.0150000000000001,-0.032911501824855804,
2.0175000000000001,-0.032719176262617111,
2.02,-0.032526850700378418,
2.0225,-0.031997960060834885,
2.0249999999999999,-0.031036337837576866,
2.0274999999999999,-0.029593905434012413,
2.0299999999999998,-0.025603175163269043,
2.0325000000000002,-0.023295283317565918,
2.0350000000000001,-0.020891230553388596,
2.0375000000000001,-0.018559297546744347,
2.04,-0.014328162185847759,
2.0425,-0.012501081451773643,
2.0449999999999999,-0.010818243026733398,
2.0474999999999999,-0.0092796487733721733,
2.0499999999999998,-0.0064428648911416531,
2.0525000000000002,-0.0050004324875771999,
2.0550000000000002,-0.0034858784638345242,
2.0575000000000001,-0.0018270810833200812,
2.0600000000000001,0.0021155676804482937,
2.0625,0.0044715404510498047,
2.0649999999999999,0.0071160001680254936,
2.0674999999999999,0.010048946365714073,
2.0699999999999998,0.01675625704228878,
2.0724999999999998,0.020434459671378136,
2.0750000000000002,0.024304986000061035,
2.0775000000000001,0.028295716270804405,
2.0800000000000001,0.036397378891706467,
2.0825,0.040412150323390961,
2.085,0.044330757111310959,
2.0874999999999999,0.048129163682460785,
2.0899999999999999,0.055269204080104828,
2.0924999999999998,0.05863487720489502,
2.0950000000000002,0.061928432434797287,
2.0975000000000001,0.065173909068107605,
2.1000000000000001,0.071953341364860535,
2.1025,0.07567962259054184,
2.105,0.079742476344108582,
2.1074999999999999,0.084189973771572113,
2.1099999999999999,0.094359122216701508,
2.1124999999999998,0.10003268718719482,
2.1150000000000002,0.10599474608898163,
2.1175000000000002,0.11210104078054428,
2.1200000000000001,0.12433767318725586,
2.1225000000000001,0.13020357489585876,
2.125,0.13578097522258759,
2.1274999999999999,0.14099776744842529,
2.1299999999999999,0.15039762854576111,
2.1324999999999998,0.15465280413627625,
2.1349999999999998,0.15869161486625671,
2.1375000000000002,0.16256213188171387,
2.1400000000000001,0.16996662318706512,
2.1425000000000001,0.17345249652862549,
2.145,0.17674605548381805,
2.1475,0.17965495586395264,
2.1499999999999999,0.18381397426128387,
2.1524999999999999,0.18465539813041687,
2.1549999999999998,0.18439094722270966,
2.1575000000000002,0.18290042877197266,
2.1600000000000001,0.17578443884849548,
2.1625000000000001,0.17013490200042725,
2.165,0.16316315531730652,
2.1675,0.15503744781017303,
2.1699999999999999,0.13621370494365692,
2.1724999999999999,0.1259724348783493,
2.1749999999999998,0.11549075692892075,
2.1775000000000002,0.10491292178630829,
2.1800000000000002,0.083853408694267273,
2.1825000000000001,0.073371730744838715,
2.1850000000000001,0.062841974198818207,
2.1875,0.052167974412441254,
2.1899999999999999,0.030122797936201096,
2.1924999999999999,0.018751621246337891,
2.1949999999999998,0.0073083243332803249,
2.1974999999999998,-0.0040388107299804688,
2.2000000000000002,-0.025458931922912598,
2.2025000000000001,-0.035003028810024261,
2.2050000000000001,-0.043513379991054535,
2.2075,-0.050845742225646973,
2.21,-0.061928432434797287,
2.2124999999999999,-0.065895125269889832,
2.2149999999999999,-0.069092512130737305,
2.2174999999999998,-0.07168889045715332,
2.2200000000000002,-0.076064273715019226,
2.2225000000000001,-0.07813175767660141,
2.2250000000000001,-0.080199241638183594,
2.2275,-0.082218647003173828,
2.23,-0.085776649415493011,
2.2324999999999999,-0.08702675998210907,
2.2349999999999999,-0.087772011756896973,
2.2374999999999998,-0.087940298020839691,
2.2400000000000002,-0.086714230477809906,
2.2425000000000002,-0.085512205958366394,
2.2450000000000001,-0.08411785215139389,
2.2475000000000001,-0.082771584391593933,
2.25,-0.080944500863552094,
2.2524999999999999,-0.080728136003017426,
2.2549999999999999,-0.081064701080322266,
2.2574999999999998,-0.081906124949455261,
2.2599999999999998,-0.084766946732997894,
2.2625000000000002,-0.086473822593688965,
2.2650000000000001,-0.08810858428478241,
2.2675000000000001,-0.08952697366476059,
2.27,-0.09123384952545166,
2.2725,-0.091402135789394379,
2.2749999999999999,-0.091137692332267761,
2.2774999999999999,-0.090464554727077484,
2.2799999999999998,-0.088300906121730804,
2.2825000000000002,-0.08702675998210907,
2.2850000000000001,-0.085776649415493011,
2.2875000000000001,-0.084622703492641449,
2.29,-0.082795619964599609,
2.2925,-0.082122489809989929,
2.2949999999999999,-0.081641674041748047,
2.2974999999999999,-0.081281065940856934,
2.2999999999999998,-0.08092045783996582,
2.3025000000000002,-0.080848336219787598,
2.3050000000000002,-0.080896422266960144,
2.3075000000000001,-0.081040665507316589,
2.3100000000000001,-0.081641674041748047,
2.3125,-0.082074403762817383,
2.3149999999999999,-0.082555219531059265,
2.3174999999999999,-0.083036027848720551,
2.3199999999999998,-0.083588957786560059,
2.3224999999999998,-0.083540879189968109,
2.3250000000000002,-0.083156228065490723,
2.3275000000000001,-0.082435011863708496,
2.3300000000000001,-0.079934798181056976,
2.3325,-0.078276000916957855,
2.335,-0.076424881815910339,
2.3374999999999999,-0.07454971969127655,
2.3399999999999999,-0.071111917495727539,
2.3424999999999998,-0.069765649735927582,
2.3450000000000002,-0.068755947053432465,
2.3475000000000001,-0.06815493106842041,
2.3500000000000001,-0.068034730851650238,
2.3525,-0.068419381976127625,
2.355,-0.068996354937553406,
2.3574999999999999,-0.069693528115749359,
2.3599999999999999,-0.070943638682365417,
2.3624999999999998,-0.071304246783256531,
2.3650000000000002,-0.071424447000026703,
2.3675000000000002,-0.071232125163078308,
2.3700000000000001,-0.069837771356105804,
2.3725000000000001,-0.068659782409667969,
2.375,-0.067241393029689789,
2.3774999999999999,-0.065606638789176941,
2.3799999999999999,-0.062072675675153732,
2.3824999999999998,-0.060389839112758636,
2.3849999999999998,-0.058827202767133713,
2.3875000000000002,-0.057529013603925705,
2.3900000000000001,-0.055918298661708832,
2.3925000000000001,-0.055653851479291916,
2.395,-0.055725973099470139,
2.3975,-0.056062541902065277,
2.3999999999999999,-0.05721648782491684,
2.4024999999999999,-0.057817500084638596,
2.4049999999999998,-0.058274269104003906,
2.4075000000000002,-0.058538716286420822,
2.4100000000000001,-0.058538716286420822,
2.4125000000000001,-0.057817500084638596,
2.415,-0.057192444801330566,
2.4175,-0.056519310921430588,
2.4199999999999999,-0.055389404296875,
2.4224999999999999,-0.055100917816162109,
2.4249999999999998,-0.05505283921957016,
2.4275000000000002,-0.05522112175822258,
2.4300000000000002,-0.056086581200361252,
2.4325000000000001,-0.056615471839904785,
2.4350000000000001,-0.057144366204738617,
2.4375,-0.05755305290222168,
2.4399999999999999,-0.058057904243469238,
2.4424999999999999,-0.058105986565351486,
2.4449999999999998,-0.058081947267055511,
2.4474999999999998,-0.058009825646877289,
2.4500000000000002,-0.057817500084638596,
2.4525000000000001,-0.057745378464460373,
2.4550000000000001,-0.05767325684428215,
2.4575,-0.057577095925807953,
2.46,-0.057360731065273285,
2.4624999999999999,-0.057240527123212814,
2.4649999999999999,-0.057120323181152344,
2.4674999999999998,-0.057048201560974121,
2.4700000000000002,-0.05721648782491684,
2.4725000000000001,-0.057456891983747482,
2.4750000000000001,-0.057745378464460373,
2.4775,-0.057985782623291016,
2.48,-0.057889621704816818,
2.4824999999999999,-0.057264566421508789,
2.4849999999999999,-0.056086581200361252,
2.4874999999999998,-0.054283540695905685,
2.4900000000000002,-0.051879487931728363,
2.4925000000000002,-0.045749150216579437,
2.4950000000000001,-0.042407512664794922,
2.4975000000000001,-0.039282243698835373,
2.5,-0.034666460007429123,
2.5024999999999999,-0.033632718026638031,
2.5049999999999999,-0.033560596406459808,
2.5074999999999998,-0.034450095146894455,
2.5099999999999998,-0.038416784256696701,
2.5125000000000002,-0.040941040962934494,
2.5150000000000001,-0.043417215347290039,
2.5175000000000001,-0.045508742332458496,
2.52,-0.047480069100856781,
2.5225,-0.046999257057905197,
2.5249999999999999,-0.045412581413984299,
2.5274999999999999,-0.042816203087568283,
2.5299999999999998,-0.034858785569667816,
2.5325000000000002,-0.02985835075378418,
2.5350000000000001,-0.024497311562299728,
2.5375000000000001,-0.019016068428754807,
2.54,-0.0086786355823278427,
2.5425,-0.004399418830871582,
2.5449999999999999,-0.0010097026824951172,
2.5474999999999999,0.0012741487007588148,
2.5499999999999998,0.0019472837448120117,
2.5525000000000002,0.00028848648071289062,
2.5550000000000002,-0.0026684999465942383,
2.5575000000000001,-0.006707310676574707,
2.5600000000000001,-0.017116865143179893,
2.5625,-0.022934675216674805,
2.5649999999999999,-0.028752487152814865,
2.5674999999999999,-0.034353934228420258,
2.5699999999999998,-0.044090352952480316,
2.5724999999999998,-0.048057042062282562,
2.5750000000000002,-0.051374636590480804,
2.5775000000000001,-0.05413929745554924,
2.5800000000000001,-0.058370433747768402,
2.5825,-0.060029231011867523,
2.585,-0.061543785035610199,
2.5874999999999999,-0.062890052795410156,
2.5899999999999999,-0.065053701400756836,
2.5924999999999998,-0.06565471738576889,
2.5950000000000002,-0.065726839005947113,
2.5975000000000001,-0.065173909068107605,
2.6000000000000001,-0.061952471733093262,
2.6025,-0.059500336647033691,
2.605,-0.056903958320617676,
2.6074999999999999,-0.054692231118679047,
2.6099999999999999,-0.054403744637966156,
2.6124999999999998,-0.057937704026699066,
2.6150000000000002,-0.064861379563808441,
2.6175000000000002,-0.075655579566955566,
2.6200000000000001,-0.10866324603557587,
2.6225000000000001,-0.12953042984008789,
2.625,-0.15150348842144012,
2.6274999999999999,-0.17256300151348114,
2.6299999999999999,-0.20182034373283386,
2.6324999999999998,-0.20439267158508301,
2.6349999999999998,-0.19530534744262695,
2.6375000000000002,-0.17220239341259003,
2.6400000000000001,-0.077939435839653015,
2.6425000000000001,-0.0062505407258868217,
2.645,0.08024732768535614,
2.6475,0.17869333922863007,
2.6499999999999999,0.39385616779327393,
2.6524999999999999,0.49917778372764587,
2.6549999999999998,0.59437835216522217,
2.6575000000000002,0.67294281721115112,
2.6600000000000001,0.75792610645294189,
2.6625000000000001,0.75684428215026855,
2.665,0.7249906063079834,
2.6675,0.66392761468887329,
2.6699999999999999,0.47153115272521973,
2.6724999999999999,0.35320362448692322,
2.6749999999999998,0.23050069808959961,
2.6775000000000002,0.111427903175354,
2.6800000000000002,-0.088805757462978363,
2.6825000000000001,-0.16044656932353973,
2.6850000000000001,-0.21018645167350769,
2.6875,-0.23848216235637665,
2.6899999999999999,-0.24103045463562012,
2.6924999999999999,-0.22326450049877167,
2.6949999999999998,-0.19881527125835419,
2.6974999999999998,-0.17186582088470459,
2.7000000000000002,-0.12303948402404785,
2.7025000000000001,-0.10481675714254379,
2.7050000000000001,-0.091450214385986328,
2.7075,-0.082435011863708496,
2.71,-0.073251530528068542,
2.7124999999999999,-0.070679187774658203,
2.7149999999999999,-0.068130895495414734,
2.7174999999999998,-0.064981579780578613,
2.7200000000000002,-0.056326985359191895,
2.7225000000000001,-0.051278471946716309,
2.7250000000000001,-0.046278040856122971,
2.7275,-0.041758418083190918,
2.73,-0.035363636910915375,
2.7324999999999999,-0.03368079662322998,
2.7349999999999999,-0.032863419502973557,
2.7374999999999998,-0.032647054642438889,
2.7400000000000002,-0.032695136964321136,
2.7425000000000002,-0.032382607460021973,
2.7450000000000001,-0.031589269638061523,
2.7475000000000001,-0.030243000015616417,
2.75,-0.026156108826398849,
2.7524999999999999,-0.023679932579398155,
2.7549999999999999,-0.021203756332397461,
2.7574999999999998,-0.018871825188398361,
2.7599999999999998,-0.015049378387629986,
2.7625000000000002,-0.013606945984065533,
2.7650000000000001,-0.012380878441035748,
2.7675000000000001,-0.011202892288565636,
2.77,-0.0084382295608520508,
2.7725,-0.0065630674362182617,
2.7749999999999999,-0.0042551755905151367,
2.7774999999999999,-0.0015385946026071906,
2.7799999999999998,0.0047119460068643093,
2.7825000000000002,0.0079093379899859428,
2.7850000000000001,0.010914405807852745,
2.7875000000000001,0.013582905754446983,
2.79,0.017405351623892784,
2.7925,0.018583338707685471,
2.7949999999999999,0.019424756988883018,
2.7974999999999999,0.020145973190665245,
2.7999999999999998,0.022189419716596603,
2.8025000000000002,0.023968419060111046,
2.8050000000000002,0.026516716927289963,
2.8075000000000001,0.029906433075666428,
2.8100000000000001,0.039065878838300705,
2.8125,0.044547121971845627,
2.8149999999999999,0.050316851586103439,
2.8174999999999999,0.056158702820539474,
2.8199999999999998,0.067097149789333344,
2.8224999999999998,0.071929298341274261,
2.8250000000000002,0.076280638575553894,
2.8275000000000001,0.080271363258361816,
2.8300000000000001,0.087796054780483246,
2.8325,0.091786786913871765,
2.835,0.096234284341335297,
2.8374999999999999,0.10130684077739716,
2.8399999999999999,0.11354347318410873,
2.8424999999999998,0.12063543498516083,
2.8450000000000002,0.12811204791069031,
2.8475000000000001,0.13573288917541504,
2.8500000000000001,0.15037357807159424,
2.8525,0.15686452388763428,
2.855,0.16256213188171387,
2.8574999999999999,0.16744236648082733,
2.8599999999999999,0.17489492893218994,
2.8624999999999998,0.1777317225933075,
2.8650000000000002,0.18025597929954529,
2.8675000000000002,0.18263599276542664,
2.8700000000000001,0.18737196922302246,
2.8725000000000001,0.18975198268890381,
2.875,0.19196371734142303,
2.8774999999999999,0.19374272227287292,
2.8799999999999999,0.19482454657554626,
2.8824999999999998,0.19345423579216003,
2.8849999999999998,0.19042512774467468,
2.8875000000000002,0.18559297919273376,
2.8900000000000001,0.17025510966777802,
2.8925000000000001,0.15994171798229218,
2.895,0.14818589389324188,
2.8975,0.1353001594543457,
2.8999999999999999,0.10748525708913803,
2.9024999999999999,0.093277297914028168,
2.9049999999999998,0.079285703599452972,
2.9075000000000002,0.065726839005947113,
2.9100000000000001,0.040676593780517578,
2.9125000000000001,0.029401581734418869,
2.915,0.019064148887991905,
2.9175,0.0095921754837036133,
2.9199999999999999,-0.0067794322967529297,
2.9224999999999999,-0.013871392235159874,
2.9249999999999998,-0.020410418510437012,
2.9275000000000002,-0.026540756225585938,
2.9300000000000002,-0.038080215454101562,
2.9325000000000001,-0.043729744851589203,
2.9350000000000001,-0.049331188201904297,
2.9375,-0.054932635277509689,
2.9399999999999999,-0.065630674362182617,
2.9424999999999999,-0.070462822914123535,
2.9449999999999998,-0.074693962931632996,
2.9474999999999998,-0.078179836273193359,
2.9500000000000002,-0.082459054887294769,
2.9525000000000001,-0.083204314112663269,
2.9550000000000001,-0.083108149468898773,
2.9575,-0.082314811646938324,
2.96,-0.079574190080165863,
2.9624999999999999,-0.078059636056423187,
2.9649999999999999,-0.076785489916801453,
2.9674999999999998,-0.075847908854484558,
2.9700000000000002,-0.075439214706420898,
2.9725000000000001,-0.075944066047668457,
2.9750000000000001,-0.076833568513393402,
2.9775,-0.077987514436244965,
2.98,-0.08063197135925293,
2.9824999999999999,-0.081906124949455261,
2.9849999999999999,-0.083011984825134277,
2.9874999999999998,-0.083973608911037445,
2.9900000000000002,-0.085391998291015625,
2.9925000000000002,-0.085848771035671234,
2.9950000000000001,-0.086137257516384125,
2.9975000000000001,-0.086305543780326843,
3,-0.086113214492797852,83.333335876464844
3.0024999999999999,-0.085704527795314789,
3.0049999999999999,-0.085127554833889008,
3.0074999999999998,-0.084334217011928558,
3.0099999999999998,-0.08241097629070282,
3.0125000000000002,-0.081425309181213379,
3.0150000000000001,-0.080535814166069031,
3.0175000000000001,-0.079862676560878754,
3.02,-0.079309746623039246,
3.0225,-0.079478025436401367,
3.0249999999999999,-0.079814597964286804,
3.0274999999999999,-0.08024732768535614,
3.0299999999999998,-0.080728136003017426,
3.0325000000000002,-0.080511771142482758,
3.0350000000000001,-0.079790554940700531,
3.0375000000000001,-0.078564487397670746,
3.04,-0.074621841311454773,
3.0425,-0.072193741798400879,
3.0449999999999999,-0.069717571139335632,
3.0474999999999999,-0.067433714866638184,
3.0499999999999998,-0.064356528222560883,
3.0525000000000002,-0.063875719904899597,
3.0550000000000002,-0.064188241958618164,
3.0575000000000001,-0.065246030688285828,
3.0600000000000001,-0.068948268890380859,
3.0625,-0.071111917495727539,
3.0649999999999999,-0.073107287287712097,
3.0674999999999999,-0.074693962931632996,
3.0699999999999998,-0.075944066047668457,
3.0724999999999998,-0.075463257730007172,
3.0750000000000002,-0.074309311807155609,
3.0775000000000001,-0.072626471519470215,
3.0800000000000001,-0.068467460572719574,
3.0825,-0.066424012184143066,
3.085,-0.064645014703273773,
3.0874999999999999,-0.06325066089630127,
3.0899999999999999,-0.061736106872558594,
3.0924999999999998,-0.061543785035610199,
3.0950000000000002,-0.061567824333906174,
3.0975000000000001,-0.061688028275966644,
3.1000000000000001,-0.061712067574262619,
3.1025,-0.061399541795253754,
3.105,-0.060774486511945724,
3.1074999999999999,-0.059812866151332855,
3.1099999999999999,-0.057144366204738617,
3.1124999999999998,-0.055605769157409668,
3.1150000000000002,-0.054115258157253265,
3.1175000000000002,-0.052793025970458984,
3.1200000000000001,-0.051230393350124359,
3.1225000000000001,-0.051182311028242111,
3.125,-0.051735244691371918,
3.1274999999999999,-0.052817068994045258,
3.1299999999999999,-0.056254863739013672,
3.1324999999999998,-0.058298312127590179,
3.1349999999999998,-0.060293674468994141,
3.1375000000000002,-0.062048636376857758,
3.1400000000000001,-0.06423632800579071,
3.1425000000000001,-0.064500771462917328,
3.145,-0.064212284982204437,
3.1475,-0.063491068780422211,
3.1499999999999999,-0.061255298554897308,
3.1524999999999999,-0.06000518798828125,
3.1549999999999998,-0.058875285089015961,
3.1575000000000002,-0.057889621704816818,
3.1600000000000001,-0.056447189301252365,
3.1625000000000001,-0.055870216339826584,
3.165,-0.055293243378400803,
3.1675,-0.054620109498500824,
3.1699999999999999,-0.052817068994045258,
3.1724999999999999,-0.051711201667785645,
3.1749999999999998,-0.050557255744934082,
3.1775000000000002,-0.049475431442260742,
3.1800000000000002,-0.048008959740400314,
3.1825000000000001,-0.047792594879865646,
3.1850000000000001,-0.048008959740400314,
3.1875,-0.04860997200012207,
3.1899999999999999,-0.050653420388698578,
3.1924999999999999,-0.05185544490814209,
3.1949999999999998,-0.052961312234401703,
3.1974999999999998,-0.053826771676540375,
3.2000000000000002,-0.05430757999420166,
3.2025000000000001,-0.053778689354658127,
3.2050000000000001,-0.052696865051984787,
3.2075,-0.051134228706359863,
3.21,-0.046806931495666504,
3.2124999999999999,-0.044282674789428711,
3.2149999999999999,-0.041686296463012695,
3.2174999999999998,-0.039162039756774902,
3.2200000000000002,-0.034882824867963791,
3.2225000000000001,-0.03334423154592514,
3.2250000000000001,-0.03231048583984375,
3.2275,-0.031853716820478439,
3.23,-0.032598972320556641,
3.2324999999999999,-0.033728878945112228,
3.2349999999999999,-0.035171311348676682,
3.2374999999999998,-0.03675798699259758,
3.2400000000000002,-0.039570730179548264,
3.2425000000000002,-0.040315985679626465,
3.2450000000000001,-0.040315985679626465,
3.2475000000000001,-0.03937840461730957,
3.25,-0.034257769584655762,
3.2524999999999999,-0.030098756775259972,
3.2549999999999999,-0.024954080581665039,
3.2574999999999998,-0.019112229347229004,
3.2599999999999998,-0.0064909458160400391,
3.2625000000000002,-0.00048081082059070468,
3.2650000000000001,0.004832148551940918,
3.2675000000000001,0.0090873241424560547,
3.27,0.013342499732971191,
3.2725,0.013078054413199425,
3.2749999999999999,0.011154810898005962,
3.2774999999999999,0.0077410540543496609,
3.2799999999999998,-0.0026684999465942383,
3.2825000000000002,-0.0090632839128375053,
3.2850000000000001,-0.015770595520734787,
3.2875000000000001,-0.02245386503636837,
3.29,-0.034690499305725098,
3.2925,-0.039835177361965179,
3.2949999999999999,-0.044186513870954514,
3.2974999999999999,-0.047792594879865646,
3.2999999999999998,-0.053153634071350098,
3.3025000000000002,-0.055245161056518555,
3.3050000000000002,-0.057168405503034592,
3.3075000000000001,-0.059043567627668381,
3.3100000000000001,-0.062769852578639984,
3.3125,-0.064476728439331055,
3.3149999999999999,-0.065798960626125336,
3.3174999999999999,-0.066472098231315613,
3.3199999999999998,-0.064909458160400391,
3.3224999999999998,-0.062433283776044846,
3.3250000000000002,-0.059019528329372406,
3.3275000000000001,-0.055100917816162109,
3.3300000000000001,-0.048561893403530121,
3.3325,-0.047840677201747894,
3.335,-0.050172608345746994,
3.3374999999999999,-0.056399106979370117,
3.3399999999999999,-0.082314811646938324,
3.3424999999999998,-0.10166744887828827,
3.3450000000000002,-0.12407322973012924,
3.3475000000000001,-0.14782528579235077,
3.3500000000000001,-0.18996834754943848,
3.3525,-0.20261368155479431,
3.355,-0.20564278960227966,
3.3574999999999999,-0.19612273573875427,
3.3599999999999999,-0.13066034018993378,
3.3624999999999998,-0.072289906442165375,
3.3650000000000002,0.0029810271225869656,
3.3675000000000002,0.093373462557792664,
3.3700000000000001,0.30555528402328491,
3.3725000000000001,0.41722357273101807,
3.375,0.52430015802383423,
3.3774999999999999,0.61993342638015747,
3.3799999999999999,0.75119477510452271,
3.3824999999999998,0.77646136283874512,
3.3849999999999998,0.77078783512115479,
3.3875000000000002,0.73381346464157104,
3.3900000000000001,0.57644408941268921,
3.3925000000000001,0.46662688255310059,
3.395,0.34567892551422119,
3.3975,0.22179803252220154,
3.3999999999999999,-0.0039426488801836967,
3.4024999999999999,-0.093421541154384613,
3.4049999999999998,-0.16212940216064453,
3.4075000000000002,-0.20884017646312714,
3.4100000000000001,-0.24143914878368378,
3.4125000000000001,-0.23372213542461395,
3.415,-0.21566769480705261,
3.4175,-0.19174735248088837,
3.4199999999999999,-0.14135837554931641,
3.4224999999999999,-0.120106540620327,
3.4249999999999998,-0.10325412452220917,
3.4275000000000002,-0.09089728444814682,
3.4300000000000002,-0.076905690133571625,
3.4325000000000001,-0.07317940890789032,
3.4350000000000001,-0.070150300860404968,
3.4375,-0.067097149789333344,
3.4399999999999999,-0.059283971786499023,
3.4424999999999999,-0.054499905556440353,
3.4449999999999998,-0.049451392143964767,
3.4474999999999998,-0.044523082673549652,
3.4500000000000002,-0.036253135651350021,
3.4525000000000001,-0.03334423154592514,
3.4550000000000001,-0.031276743859052658,
3.4575,-0.029954513534903526,
3.46,-0.02889673039317131,
3.4624999999999999,-0.028656324371695518,
3.4649999999999999,-0.028367837890982628,
3.4674999999999998,-0.027814906090497971,
3.4700000000000002,-0.025482973083853722,
3.4725000000000001,-0.023583769798278809,
3.4750000000000001,-0.021203756332397461,
3.4775,-0.018415054306387901,
3.48,-0.011996230110526085,
3.4824999999999999,-0.0086065139621496201,
3.4849999999999999,-0.0052648782730102539,
3.4874999999999998,-0.0021155676804482937,
3.4900000000000002,0.0033897161483764648,
3.4925000000000002,0.0056735677644610405,
3.4950000000000001,0.0076689324341714382,
3.4975000000000001,0.009447932243347168,
3.5,0.01276552677154541,
3.5024999999999999,0.014520486816763878,
3.5049999999999999,0.016419690102338791,
3.5074999999999998,0.018535256385803223,
3.5099999999999998,0.023487608879804611,
3.5125000000000002,0.026252269744873047,
3.5150000000000001,0.029185216873884201,
3.5175000000000001,0.032166242599487305,
3.52,0.038200419396162033,
3.5225,0.041157405823469162,
3.5249999999999999,0.044066309928894043,
3.5274999999999999,0.046975217759609222,
3.5299999999999998,0.05288919061422348,
3.5325000000000002,0.056014459580183029,
3.5350000000000001,0.059332054108381271,
3.5375000000000001,0.062914095818996429,
3.54,0.070919595658779144,
3.5425,0.075367093086242676,
3.5449999999999999,0.080127120018005371,
3.5474999999999999,0.085103511810302734,
3.5499999999999998,0.095609232783317566,
3.5525000000000002,0.10099431127309799,
3.5550000000000002,0.10640343278646469,
3.5575000000000001,0.11181255429983139,
3.5600000000000001,0.12267887592315674,
3.5625,0.12818416953086853,
3.5649999999999999,0.13378560543060303,
3.5674999999999999,0.13953129947185516,
3.5699999999999998,0.15157561004161835,
3.5724999999999998,0.15785019099712372,
3.5750000000000002,0.16419689357280731,
3.5775000000000001,0.17051956057548523,
3.5800000000000001,0.18266002833843231,
3.5825,0.18818935751914978,
3.585,0.19318978488445282,
3.5874999999999999,0.1975892037153244,
3.5899999999999999,0.20422439277172089,
3.5924999999999998,0.20636400580406189,
3.5950000000000002,0.20773431658744812,
3.5975000000000001,0.20826320350170135,
3.6000000000000001,0.20679673552513123,
3.6025,0.20470520853996277,
3.605,0.20162801444530487,
3.6074999999999999,0.19746899604797363,
3.6099999999999999,0.18554489314556122,
3.6124999999999998,0.17770767211914062,
3.6150000000000002,0.16854822635650635,
3.6175000000000002,0.15816271305084229,
3.6200000000000001,0.13407409191131592,
3.6225000000000001,0.12073159217834473,
3.625,0.10681211948394775,
3.6274999999999999,0.092556081712245941,
3.6299999999999999,0.064116120338439941,
3.6324999999999998,0.050413012504577637,
3.6349999999999998,0.037334959954023361,
3.6375000000000002,0.02507428452372551,
3.6400000000000001,0.0034377973061054945,
3.6425000000000001,-0.0058418512344360352,
3.645,-0.014063715934753418,
3.6475,-0.021299919113516808,
3.6499999999999999,-0.033199988305568695,
3.6524999999999999,-0.03812829777598381,
3.6549999999999998,-0.04257579892873764,
3.6575000000000002,-0.046614609658718109,
3.6600000000000001,-0.05397101491689682,
3.6625000000000001,-0.057360731065273285,
3.665,-0.060534082353115082,
3.6675,-0.063515111804008484,
3.6699999999999999,-0.068491503596305847,
3.6724999999999999,-0.070366665720939636,
3.6749999999999998,-0.071809098124504089,
3.6775000000000002,-0.07277071475982666,
3.6800000000000002,-0.07346789538860321,
3.6825000000000001,-0.073371730744838715,
3.6850000000000001,-0.073083244264125824,
3.6875,-0.072794757783412933,
3.6899999999999999,-0.07248222827911377,
3.6924999999999999,-0.072650514543056488,
3.6949999999999998,-0.073035165667533875,
3.6974999999999998,-0.073660217225551605,
3.7000000000000002,-0.07522284984588623,
3.7025000000000001,-0.076040230691432953,
3.7050000000000001,-0.07671336829662323,
3.7075,-0.077242255210876465,
3.71,-0.077747106552124023,
3.7124999999999999,-0.07779519259929657,
3.7149999999999999,-0.077747106552124023,
3.7174999999999998,-0.077723070979118347,
3.7200000000000002,-0.077915392816066742,
3.7225000000000001,-0.078179836273193359,
3.7250000000000001,-0.078516408801078796,
3.7275,-0.078901052474975586,
3.73,-0.079309746623039246,
3.7324999999999999,-0.079189538955688477,
3.7349999999999999,-0.078780852258205414,
3.7374999999999998,-0.078059636056423187,
3.7400000000000002,-0.075944066047668457,
3.7425000000000002,-0.074742041528224945,
3.7450000000000001,-0.073612138628959656,
3.7475000000000001,-0.072650514543056488,
3.75,-0.071496568620204926,
3.7524999999999999,-0.071304246783256531,
3.7549999999999999,-0.071304246783256531,
3.7574999999999998,-0.07140040397644043,
3.7599999999999998,-0.071280203759670258,
3.7625000000000002,-0.070871517062187195,
3.7650000000000001,-0.070126257836818695,
3.7675000000000001,-0.069020390510559082,
3.77,-0.067626044154167175,
3.7725,-0.064380571246147156,
3.7749999999999999,-0.062793895602226257,
3.7774999999999999,-0.061447620391845703,
3.7799999999999998,-0.059957109391689301,
3.7825000000000002,-0.059933066368103027,
3.7850000000000001,-0.060437917709350586,
3.7875000000000001,-0.061351459473371506,
3.79,-0.062601566314697266,
3.7925,-0.065438352525234222,
3.7949999999999999,-0.066688463091850281,
3.7974999999999999,-0.067577958106994629,
3.7999999999999998,-0.068034730851650238,
3.8025000000000002,-0.067313514649868011,
3.8050000000000002,-0.066135525703430176,
3.8075000000000001,-0.064500771462917328,
3.8100000000000001,-0.060269635170698166,
3.8125,-0.057985782623291016,
3.8149999999999999,-0.055750012397766113,
3.8174999999999999,-0.053706567734479904,
3.8199999999999998,-0.050533216446638107,
3.8224999999999998,-0.049499474465847015,
3.8250000000000002,-0.048874419182538986,
3.8275000000000001,-0.04860997200012207,
3.8300000000000001,-0.048922501504421234,
3.8325,-0.049331188201904297,
3.835,-0.049836039543151855,
3.8374999999999999,-0.050364933907985687,
3.8399999999999999,-0.051230393350124359,
3.8424999999999998,-0.051542919129133224,
3.8450000000000002,-0.051783323287963867,
3.8475000000000001,-0.051951609551906586,
3.8500000000000001,-0.052192013710737228,
3.8525,-0.052240096032619476,
3.855,-0.052216053009033203,
3.8574999999999999,-0.052071809768676758,
3.8599999999999999,-0.051326554268598557,
3.8624999999999998,-0.050677459686994553,
3.8650000000000002,-0.049860082566738129,
3.8675000000000002,-0.048898458480834961,
3.8700000000000001,-0.046999257057905197,
3.8725000000000001,-0.046278040856122971,
3.875,-0.04582127183675766,
3.8774999999999999,-0.045677028596401215,
3.8799999999999999,-0.046254001557826996,
3.8824999999999998,-0.046806931495666504,
3.8849999999999998,-0.04735986515879631,
3.8875000000000002,-0.047744512557983398,
3.8900000000000001,-0.047576230019330978,
3.8925000000000001,-0.046927135437726974,
3.895,-0.045917432755231857,
3.8975,-0.044667325913906097,
3.8999999999999999,-0.042119026184082031,
3.9024999999999999,-0.041181445121765137,
3.9049999999999998,-0.040676593780517578,
3.9075000000000002,-0.040676593780517578,
3.9100000000000001,-0.042239230126142502,
3.9125000000000001,-0.043633580207824707,
3.915,-0.045220255851745605,
3.9175,-0.046806931495666504,
3.9199999999999999,-0.049186944961547852,
3.9224999999999999,-0.049667757004499435,
3.9249999999999998,-0.04952351376414299,
3.9275000000000002,-0.048730175942182541,
3.9300000000000002,-0.045412581413984299,
3.9325000000000001,-0.043056607246398926,
3.9350000000000001,-0.040412150323390961,
3.9375,-0.037623446434736252,
3.9399999999999999,-0.032214324921369553,
3.9424999999999999,-0.029882391914725304,
3.9449999999999998,-0.027911067008972168,
3.9474999999999998,-0.026420554146170616,
3.9500000000000002,-0.02507428452372551,
3.9525000000000001,-0.025266608223319054,
3.9550000000000001,-0.02598782442510128,
3.9575,-0.027189850807189941,
3.96,-0.030627649277448654,
3.9624999999999999,-0.032526850700378418,
3.9649999999999999,-0.03430585190653801,
3.9674999999999998,-0.035724245011806488,
3.9700000000000002,-0.036637783050537109,
3.9725000000000001,-0.035724245011806488,
3.9750000000000001,-0.033728878945112228,
3.9775,-0.030579566955566406,
3.98,-0.021059513092041016,
3.9824999999999999,-0.015025338158011436,
3.9849999999999999,-0.0085343923419713974,
3.9874999999999998,-0.0019232432823628187,
3.9900000000000002,0.0098806619644165039,
3.9925000000000002,0.014256040565669537,
3.9950000000000001,0.017164945602416992,
3.9975000000000001,0.018366973847150803,
4,0.01538594625890255,83.333335876464844
4.0025000000000004,0.01139521598815918,
4.0049999999999999,0.0060822567902505398,
4.0075000000000003,-0.00021636486053466797,
4.0099999999999998,-0.014135837554931641,
4.0125000000000002,-0.020939311012625694,
4.0149999999999997,-0.027189850807189941,
4.0175000000000001,-0.032671093940734863,
4.0199999999999996,-0.040965080261230469,
4.0225,-0.043801866471767426,
4.0250000000000004,-0.045965515077114105,
4.0274999999999999,-0.047624312341213226,
4.0300000000000002,-0.050172608345746994,
4.0324999999999998,-0.051302514970302582,
4.0350000000000001,-0.052432417869567871,
4.0374999999999996,-0.053442120552062988,
4.04,-0.054596066474914551,
4.0425000000000004,-0.054331623017787933,
4.0449999999999999,-0.053249798715114594,
4.0475000000000003,-0.051302514970302582,
4.0499999999999998,-0.045484703034162521,
4.0525000000000002,-0.042479634284973145,
4.0549999999999997,-0.04029194638133049,
4.0575000000000001,-0.039835177361965179,
4.0599999999999996,-0.047744512557983398,
4.0625,-0.057601135224103928,
4.0650000000000004,-0.071857176721096039,
4.0674999999999999,-0.090272232890129089,
4.0700000000000003,-0.13573288917541504,
4.0724999999999998,-0.15929262340068817,
4.0750000000000002,-0.18018385767936707,
4.0774999999999997,-0.19552171230316162,
4.0800000000000001,-0.19746899604797363,
4.0824999999999996,-0.1784769743680954,
4.085,-0.14335374534130096,
4.0875000000000004,-0.091041527688503265,
4.0899999999999999,0.063755512237548828,
4.0925000000000002,0.16212940216064453,
4.0949999999999998,0.26947042346000671,
4.0975000000000001,0.38041752576828003,
4.0999999999999996,0.58757483959197998,
4.1025,0.6702502965927124,
4.1050000000000004,0.73064011335372925,
4.1074999999999999,0.76376795768737793,
4.1100000000000003,0.73811674118041992,
4.1124999999999998,0.67979437112808228,
4.1150000000000002,0.59541207551956177,
4.1174999999999997,0.49076360464096069,
4.1200000000000001,0.2506466805934906,
4.1224999999999996,0.13135752081871033,
4.125,0.022574067115783691,
4.1275000000000004,-0.069885849952697754,
4.1299999999999999,-0.19254069030284882,
4.1325000000000003,-0.22143742442131042,
4.1349999999999998,-0.23107767105102539,
4.1375000000000002,-0.22509157657623291,
4.1399999999999997,-0.18395821750164032,
4.1425000000000001,-0.15753766894340515,
4.1449999999999996,-0.13205468654632568,
4.1475,-0.10988931357860565,
4.1500000000000004,-0.079766511917114258,
4.1524999999999999,-0.07168889045715332,
4.1550000000000002,-0.067097149789333344,
4.1574999999999998,-0.064813300967216492,
4.1600000000000001,-0.06245732307434082,
4.1624999999999996,-0.060726404190063477,
4.165,-0.057985782623291016,
4.1675000000000004,-0.054211419075727463,
4.1699999999999999,-0.044402878731489182,
4.1725000000000003,-0.039017796516418457,
4.1749999999999998,-0.033776961266994476,
4.1775000000000002,-0.028944810852408409,
4.1799999999999997,-0.021011432632803917,
4.1825000000000001,-0.017934244126081467,
4.1849999999999996,-0.015361905097961426,
4.1875,-0.013246337883174419,
4.1900000000000004,-0.0098806619644165039,
4.1924999999999999,-0.0085103511810302734,
4.1950000000000003,-0.0073323650285601616,
4.1974999999999998,-0.0062986216507852077,
4.2000000000000002,-0.004735986702144146,
4.2024999999999997,-0.0041590137407183647,
4.2050000000000001,-0.0036301217041909695,
4.2074999999999996,-0.0031012296676635742,
4.21,-0.0015626351814717054,
4.2125000000000004,-0.00036060810089111328,
4.2149999999999999,0.0012501081218943,
4.2175000000000002,0.0032935540657490492,
4.2199999999999998,0.0086786355823278427,
4.2225000000000001,0.011827945709228516,
4.2249999999999996,0.015121500007808208,
4.2275,0.018391013145446777,
4.2300000000000004,0.02444922924041748,
4.2324999999999999,0.027045607566833496,
4.2350000000000003,0.029305418953299522,
4.2374999999999998,0.031300783157348633,
4.2400000000000002,0.034834742546081543,
4.2424999999999997,0.036637783050537109,
4.2450000000000001,0.038609109818935394,
4.2474999999999996,0.040868919342756271,
4.25,0.046494405716657639,
4.2525000000000004,0.049884121865034103,
4.2549999999999999,0.053586363792419434,
4.2575000000000003,0.05755305290222168,
4.2599999999999998,0.065967246890068054,
4.2625000000000002,0.070294544100761414,
4.2649999999999997,0.074645876884460449,
4.2675000000000001,0.079045295715332031,
4.2699999999999996,0.088084541261196136,
4.2725,0.092868611216545105,
4.2750000000000004,0.097917124629020691,
4.2774999999999999,0.10327816009521484,
4.2800000000000002,0.11500994861125946,
4.2824999999999998,0.12130856513977051,
4.2850000000000001,0.12777547538280487,
4.2874999999999996,0.13431450724601746,
4.29,0.1469598263502121,
4.2925000000000004,0.15280167758464813,
4.2949999999999999,0.15816271305084229,
4.2975000000000003,0.1629948616027832,
4.2999999999999998,0.17112056910991669,
4.3025000000000002,0.17453432083129883,
4.3049999999999997,0.17770767211914062,
4.3075000000000001,0.1807127445936203,
4.3099999999999996,0.18674692511558533,
4.3125,0.18987219035625458,
4.3150000000000004,0.1930215060710907,
4.3174999999999999,0.19605061411857605,
4.3200000000000003,0.20088276267051697,
4.3224999999999998,0.20208477973937988,
4.3250000000000002,0.20213286578655243,
4.3274999999999997,0.20071446895599365,
4.3300000000000001,0.19292533397674561,
4.3324999999999996,0.18650650978088379,
4.335,0.17852506041526794,
4.3375000000000004,0.16922137141227722,
4.3399999999999999,0.14782528579235077,
4.3425000000000002,0.13633391261100769,
4.3449999999999998,0.12469828128814697,
4.3475000000000001,0.11308670043945312,
4.3499999999999996,0.090272232890129089,
4.3525,0.079069338738918304,
4.3550000000000004,0.067914530634880066,
4.3574999999999999,0.05675971508026123,
4.3600000000000003,0.034353934228420258,
4.3624999999999998,0.023175081238150597,
4.3650000000000002,0.012188553810119629,
4.3674999999999997,0.0015626351814717054,
4.3700000000000001,-0.017790000885725021,
4.3724999999999996,-0.026156108826398849,
4.375,-0.033536553382873535,
4.3775000000000004,-0.039835177361965179,
4.3799999999999999,-0.049475431442260742,
4.3825000000000003,-0.0530574731528759,
4.3849999999999998,-0.056086581200361252,
4.3875000000000002,-0.058682959526777267,
4.3899999999999997,-0.063346825540065765,
4.3925000000000001,-0.065606638789176941,
4.3949999999999996,-0.06786644458770752,
4.3975,-0.070126257836818695,
4.4000000000000004,-0.074333354830741882,
4.4024999999999999,-0.076136395335197449,
4.4050000000000002,-0.077578827738761902,
4.4074999999999998,-0.078660652041435242,
4.4100000000000001,-0.079646311700344086,
4.4124999999999996,-0.079622268676757812,
4.415,-0.079357825219631195,
4.4175000000000004,-0.078925095498561859,
4.4199999999999999,-0.077843271195888519,
4.4225000000000003,-0.077266298234462738,
4.4249999999999998,-0.07671336829662323,
4.4275000000000002,-0.076112352311611176,
4.4299999999999997,-0.074621841311454773,
4.4325000000000001,-0.073660217225551605,
4.4349999999999996,-0.072530314326286316,
4.4375,-0.071280203759670258,
4.4400000000000004,-0.068707868456840515,
4.4424999999999999,-0.067674122750759125,
4.4450000000000003,-0.067000985145568848,
4.4474999999999998,-0.06678462028503418,
4.4500000000000002,-0.067938566207885742,
4.4524999999999997,-0.069308876991271973,
4.4550000000000001,-0.071039795875549316,
4.4574999999999996,-0.072987079620361328,
4.46,-0.076737403869628906,
4.4625000000000004,-0.078179836273193359,
4.4649999999999999,-0.079141460359096527,
4.4675000000000002,-0.079598233103752136,
4.4699999999999998,-0.079045295715332031,
4.4725000000000001,-0.078203879296779633,
4.4749999999999996,-0.077194176614284515,
4.4775,-0.076112352311611176,
4.4800000000000004,-0.074141025543212891,
4.4824999999999999,-0.073347687721252441,
4.4850000000000003,-0.072674557566642761,
4.4874999999999998,-0.07209758460521698,
4.4900000000000002,-0.07101576030254364,
4.4924999999999997,-0.070414744317531586,
4.4950000000000001,-0.069741606712341309,
4.4974999999999996,-0.068996354937553406,
4.5,-0.067361593246459961,
4.5025000000000004,-0.066520176827907562,
4.5049999999999999,-0.065630674362182617,
4.5075000000000003,-0.064717136323451996,
4.5099999999999998,-0.062721773982048035,
4.5125000000000002,-0.061591863632202148,
4.5149999999999997,-0.060365796089172363,
4.5175000000000001,-0.059091649949550629,
4.5199999999999996,-0.05647122859954834,
4.5225,-0.055245161056518555,
4.5250000000000004,-0.054163336753845215,
4.5274999999999999,-0.053249798715114594,
4.5300000000000002,-0.051999688148498535,
4.5324999999999998,-0.051615040749311447,
4.5350000000000001,-0.051326554268598557,
4.5374999999999996,-0.051062107086181641,
4.54,-0.050413012504577637,
4.5425000000000004,-0.049980282783508301,
4.5449999999999999,-0.049499474465847015,
4.5475000000000003,-0.048970580101013184,
4.5499999999999998,-0.048057042062282562,
4.5525000000000002,-0.047768555581569672,
4.5549999999999997,-0.047672390937805176,
4.5575000000000001,-0.047768555581569672,
4.5599999999999996,-0.04844168946146965,
4.5625,-0.048946540802717209,
4.5650000000000004,-0.049451392143964767,
4.5674999999999999,-0.049884121865034103,
4.5700000000000003,-0.05043705552816391,
4.5724999999999998,-0.05043705552816391,
4.5750000000000002,-0.050292812287807465,
4.5774999999999997,-0.050004325807094574,
4.5800000000000001,-0.049114823341369629,
4.5824999999999996,-0.048585932701826096,
4.585,-0.048008959740400314,
4.5875000000000004,-0.047456026077270508,
4.5899999999999999,-0.046254001557826996,
4.5925000000000002,-0.045580863952636719,
4.5949999999999998,-0.044859647750854492,
4.5975000000000001,-0.044090352952480316,
4.5999999999999996,-0.042503677308559418,
4.6025,-0.041782461106777191,
4.6050000000000004,-0.04120548814535141,
4.6074999999999999,-0.040844880044460297,
4.6100000000000003,-0.040941040962934494,
4.6124999999999998,-0.041397809982299805,
4.6150000000000002,-0.042094986885786057,
4.6174999999999997,-0.042888324707746506,
4.6200000000000001,-0.044306717813014984,
4.6224999999999996,-0.044667325913906097,
4.625,-0.044619243592023849,
4.6275000000000004,-0.044138431549072266,
4.6299999999999999,-0.041830539703369141,
4.6325000000000003,-0.04012366384267807,
4.6349999999999998,-0.038224458694458008,
4.6375000000000002,-0.036253135651350021,
4.6399999999999997,-0.032695136964321136,
4.6425000000000001,-0.031324826180934906,
4.6449999999999996,-0.030339162796735764,
4.6475,-0.029738148674368858,
4.6500000000000004,-0.02969006821513176,
4.6524999999999999,-0.030170878395438194,
4.6550000000000002,-0.030916135758161545,
4.6574999999999998,-0.031805634498596191,
4.6600000000000001,-0.033776961266994476,
4.6624999999999996,-0.034642420709133148,
4.665,-0.035243432968854904,
4.6675000000000004,-0.03550788015127182,
4.6699999999999999,-0.034329891204833984,
4.6725000000000003,-0.032647054642438889,
4.6749999999999998,-0.030098756775259972,
4.6775000000000002,-0.026660960167646408,
4.6799999999999997,-0.017333230003714561,
4.6825000000000001,-0.011779865249991417,
4.6849999999999996,-0.0059620542451739311,
4.6875,-0.00024040541029535234,
4.6900000000000004,0.0093998517841100693,
4.6924999999999999,0.012621283531188965,
4.6950000000000003,0.014352202415466309,
4.6974999999999998,0.014424324035644531,
4.7000000000000002,0.0095440950244665146,
4.7024999999999997,0.004784067627042532,
4.7050000000000001,-0.0011539459228515625,
4.7074999999999996,-0.0079093379899859428,
4.71,-0.022285580635070801,
4.7125000000000004,-0.029040973633527756,
4.7149999999999999,-0.035003028810024261,
4.7175000000000002,-0.039859216660261154,
4.7199999999999998,-0.045628946274518967,
4.7225000000000001,-0.046566527336835861,
4.7249999999999996,-0.046398244798183441,
4.7275,-0.045412581413984299,
4.7300000000000004,-0.04262387752532959,
4.7324999999999999,-0.041566096246242523,
4.7350000000000003,-0.041085284203290939,
4.7374999999999998,-0.041301649063825607,
4.7400000000000002,-0.043561458587646484,
4.7424999999999997,-0.04507601261138916,
4.7450000000000001,-0.046398244798183441,
4.7474999999999996,-0.047215621918439865,
4.75,-0.047119460999965668,
4.7525000000000004,-0.046590566635131836,
4.7549999999999999,-0.046494405716657639,
4.7575000000000003,-0.047648351639509201,
4.7599999999999998,-0.057336688041687012,
4.7625000000000002,-0.067313514649868011,
4.7649999999999997,-0.081184908747673035,
4.7675000000000001,-0.098638340830802917,
4.7699999999999996,-0.14015635848045349,
4.7725,-0.1605667769908905,
4.7750000000000004,-0.17749130725860596,
4.7774999999999999,-0.18809318542480469,
4.7800000000000002,-0.17871737480163574,
4.7824999999999998,-0.15369117259979248,
4.7850000000000001,-0.11272609233856201,
4.7874999999999996,-0.055173039436340332,
4.79,0.10649959743022919,
4.7925000000000004,0.20571491122245789,
4.7949999999999999,0.31168562173843384,
4.7975000000000003,0.41893047094345093,
4.7999999999999998,0.61156731843948364,
4.8025000000000002,0.68380916118621826,
4.8049999999999997,0.73222678899765015,
4.8075000000000001,0.75254106521606445,
4.8099999999999996,0.70174336433410645,
4.8125,0.63281917572021484,
4.8150000000000004,0.54011881351470947,
4.8174999999999999,0.4300612211227417,
4.8200000000000003,0.18891057372093201,
4.8224999999999998,0.073828503489494324,
4.8250000000000002,-0.028199553489685059,
4.8274999999999997,-0.11207699775695801,
4.8300000000000001,-0.2153070867061615,
4.8324999999999996,-0.23506841063499451,
4.835,-0.23691952228546143,
4.8375000000000004,-0.22489926218986511,
4.8399999999999999,-0.1775393933057785,
4.8425000000000002,-0.150686115026474,
4.8449999999999998,-0.12604455649852753,
4.8475000000000001,-0.10556201636791229,
4.8499999999999996,-0.079429946839809418,
4.8525,-0.072914958000183105,
4.8550000000000004,-0.069308876991271973,
4.8574999999999999,-0.067313514649868011,
4.8600000000000003,-0.063971877098083496,
4.8624999999999998,-0.061231255531311035,
4.8650000000000002,-0.057456891983747482,
4.8674999999999997,-0.052744947373867035,
4.8700000000000001,-0.041926704347133636,
4.8724999999999996,-0.03658970445394516,
4.875,-0.031709473580121994,
4.8775000000000004,-0.02752641960978508,
4.8799999999999999,-0.021468203514814377,
4.8825000000000003,-0.019520919770002365,
4.8849999999999998,-0.018150608986616135,
4.8875000000000002,-0.01721302792429924,
4.8899999999999997,-0.016155242919921875,
4.8925000000000001,-0.015794634819030762,
4.8949999999999996,-0.015409986488521099,
4.8975,-0.014881094917654991,
4.9000000000000004,-0.013198256492614746,
4.9024999999999999,-0.011924108490347862,
4.9050000000000002,-0.010361473076045513,
4.9074999999999998,-0.0085343923419713974,
4.9100000000000001,-0.0042311353608965874,
4.9124999999999996,-0.0019232432823628187,
4.915,0.00043272972106933594,
4.9175000000000004,0.0027646622620522976,
4.9199999999999999,0.0072362027131021023,
4.9225000000000003,0.0093758106231689453,
4.9249999999999998,0.011491378769278526,
4.9275000000000002,0.013582905754446983,
4.9299999999999997,0.017814040184020996,
4.9325000000000001,0.019977688789367676,
4.9349999999999996,0.022165378555655479,
4.9375,0.024425189942121506,
4.9400000000000004,0.029185216873884201,
4.9424999999999999,0.031805634498596191,
4.9450000000000003,0.034666460007429123,
4.9474999999999998,0.037815771996974945,
4.9500000000000002,0.045244298875331879,
4.9524999999999997,0.049499474465847015,
4.9550000000000001,0.054043136537075043,
4.9574999999999996,0.058803163468837738,
4.96,0.068539582192897797,
4.9625000000000004,0.073323652148246765,
4.9649999999999999,0.077939435839653015,
4.9675000000000002,0.082435011863708496,
4.9699999999999998,0.091209813952445984,
4.9725000000000001,0.095681354403495789,
4.9749999999999996,0.10032117366790771,
4.9775,0.10522544384002686,
4.9800000000000004,0.11589944362640381,
4.9824999999999999,0.1215970516204834,
4.9850000000000003,0.12741486728191376,
4.9874999999999998,0.13323268294334412,
4.9900000000000002,0.14448365569114685,
4.9924999999999997,0.14977256953716278,
4.9950000000000001,0.15482108294963837,
4.9974999999999996,0.15962919592857361,
5,0.16883671283721924,83.478263854980469
5.0025000000000004,0.17330825328826904,
5.0049999999999999,0.1777317225933075,
5.0075000000000003,0.18210709095001221,
5.0099999999999998,0.19023279845714569,
5.0125000000000002,0.19369463622570038,
5.0149999999999997,0.19655546545982361,
5.0175000000000001,0.19857487082481384,
5.0199999999999996,0.19953648746013641,
5.0225,0.19826233386993408,
5.0250000000000004,0.19571404159069061,
5.0274999999999999,0.19191563129425049,
5.0300000000000002,0.18092910945415497,
5.0324999999999998,0.17393331229686737,
5.0350000000000001,0.16612014174461365,
5.0374999999999996,0.15760979056358337,
5.04,0.13888220489025116,
5.0425000000000004,0.12880921363830566,
5.0449999999999999,0.11830350011587143,
5.0475000000000003,0.10738909244537354,
5.0499999999999998,0.084334217011928558,
5.0525000000000002,0.072265863418579102,
5.0549999999999997,0.059884987771511078,
5.0575000000000001,0.04735986515879631,
5.0599999999999996,0.022357702255249023,
5.0625,0.01028935145586729,
5.0650000000000004,-0.0011779865017160773,
5.0674999999999999,-0.01185198687016964,
5.0700000000000003,-0.030122797936201096,
5.0724999999999998,-0.037503242492675781,
5.0750000000000002,-0.043681662529706955,
5.0774999999999997,-0.048730175942182541,
5.0800000000000001,-0.055942337960004807,
5.0824999999999996,-0.058490633964538574,
5.085,-0.060630243271589279,
5.0875000000000004,-0.062553487718105316,
5.0899999999999999,-0.066279768943786621,
5.0925000000000002,-0.068227052688598633,
5.0949999999999998,-0.070246458053588867,
5.0975000000000001,-0.072265863418579102,
5.0999999999999996,-0.075871944427490234,
5.1025,-0.077266298234462738,
5.1050000000000004,-0.078276000916957855,
5.1074999999999999,-0.07887701690196991,
5.1100000000000003,-0.079045295715332031,
5.1124999999999998,-0.078780852258205414,
5.1150000000000002,-0.078396201133728027,
5.1174999999999997,-0.078035593032836914,
5.1200000000000001,-0.077674984931945801,
5.1224999999999996,-0.077723070979118347,
5.125,-0.077939435839653015,
5.1275000000000004,-0.078251957893371582,
5.1299999999999999,-0.078852973878383636,
5.1325000000000003,-0.079045295715332031,
5.1349999999999998,-0.079093381762504578,
5.1375000000000002,-0.078997217118740082,
5.1399999999999997,-0.078396201133728027,
5.1425000000000001,-0.078011557459831238,
5.1449999999999996,-0.077626906335353851,
5.1475,-0.077338419854640961,
5.1500000000000004,-0.07709801197052002,
5.1524999999999999,-0.077218219637870789,
5.1550000000000002,-0.077482663094997406,
5.1574999999999998,-0.077867314219474792,
5.1600000000000001,-0.078804895281791687,
5.1624999999999996,-0.079261660575866699,
5.165,-0.079694390296936035,
5.1675000000000004,-0.080006919801235199,
5.1699999999999999,-0.08024732768535614,
5.1725000000000003,-0.080151163041591644,
5.1749999999999998,-0.079862676560878754,
5.1775000000000002,-0.079405903816223145,
5.1799999999999997,-0.077963471412658691,
5.1825000000000001,-0.077001854777336121,
5.1849999999999996,-0.075944066047668457,
5.1875,-0.074814163148403168,
5.1900000000000004,-0.07248222827911377,
5.1924999999999999,-0.07140040397644043,
5.1950000000000003,-0.070414744317531586,
5.1974999999999998,-0.069549284875392914,
5.2000000000000002,-0.068130895495414734,
5.2024999999999997,-0.067505836486816406,
5.2050000000000001,-0.066856741905212402,
5.2074999999999996,-0.066159568727016449,
5.21,-0.064380571246147156,
5.2125000000000004,-0.063298746943473816,
5.2149999999999999,-0.06212075799703598,
5.2175000000000002,-0.060870647430419922,
5.2199999999999998,-0.058538716286420822,
5.2225000000000001,-0.057601135224103928,
5.2249999999999996,-0.056879919022321701,
5.2275,-0.056399106979370117,
5.2300000000000004,-0.056086581200361252,
5.2324999999999999,-0.056110620498657227,
5.2350000000000003,-0.056110620498657227,
5.2374999999999998,-0.056014459580183029,
5.2400000000000002,-0.055076878517866135,
5.2424999999999997,-0.05413929745554924,
5.2450000000000001,-0.05288919061422348,
5.2474999999999996,-0.051374636590480804,
5.25,-0.047912798821926117,
5.2525000000000004,-0.046205919235944748,
5.2549999999999999,-0.044715404510498047,
5.2575000000000003,-0.043561458587646484,
5.2599999999999998,-0.04262387752532959,
5.2625000000000002,-0.042984485626220703,
5.2649999999999997,-0.043873988091945648,
5.2675000000000001,-0.045220255851745605,
5.2699999999999996,-0.048826336860656738,
5.2725,-0.050749581307172775,
5.2750000000000004,-0.052504539489746094,
5.2774999999999999,-0.053922932595014572,
5.2800000000000002,-0.055100917816162109,
5.2824999999999998,-0.054740309715270996,
5.2850000000000001,-0.053754650056362152,
5.2874999999999996,-0.052264135330915451,
5.29,-0.048393607139587402,
5.2925000000000004,-0.046446323394775391,
5.2949999999999999,-0.04473944753408432,
5.2975000000000003,-0.043489336967468262,
5.2999999999999998,-0.042599838227033615,
5.3025000000000002,-0.042984485626220703,
5.3049999999999997,-0.043801866471767426,
5.3075000000000001,-0.044883690774440765,
5.3099999999999996,-0.047215621918439865,
5.3125,-0.04815320298075676,
5.3150000000000004,-0.048778258264064789,
5.3174999999999999,-0.049042701721191406,
5.3200000000000003,-0.048537850379943848,
5.3224999999999998,-0.047936838120222092,
5.3250000000000002,-0.04719158262014389,
5.3274999999999997,-0.046470366418361664,
5.3300000000000001,-0.045412581413984299,
5.3324999999999996,-0.045172177255153656,
5.335,-0.045148134231567383,
5.3375000000000004,-0.045292377471923828,
5.3399999999999999,-0.045917432755231857,
5.3425000000000002,-0.046254001557826996,
5.3449999999999998,-0.046542488038539886,
5.3475000000000001,-0.046758852899074554,
5.3499999999999996,-0.047047339379787445,
5.3525,-0.04719158262014389,
5.3550000000000004,-0.047383904457092285,
5.3574999999999999,-0.047696433961391449,
5.3600000000000003,-0.048489771783351898,
5.3624999999999998,-0.048850379884243011,
5.3650000000000002,-0.049042701721191406,
5.3674999999999997,-0.048874419182538986,
5.3700000000000001,-0.046927135437726974,
5.3724999999999996,-0.045003890991210938,
5.375,-0.04245559498667717,
5.3775000000000004,-0.03937840461730957,
5.3799999999999999,-0.032574933022260666,
5.3825000000000003,-0.029425621032714844,
5.3849999999999998,-0.026829242706298828,
5.3875000000000002,-0.025026202201843262,
5.3899999999999997,-0.02428094670176506,
5.3925000000000001,-0.025314688682556152,
5.3949999999999996,-0.02706964872777462,
5.3975,-0.029305418953299522,
5.4000000000000004,-0.033945243805646896,
5.4024999999999999,-0.03584444522857666,
5.4050000000000002,-0.037166677415370941,
5.4074999999999998,-0.037863850593566895,
5.4100000000000001,-0.037286877632141113,
5.4124999999999996,-0.036181014031171799,
5.415,-0.0345943383872509,
5.4175000000000004,-0.032647054642438889,
5.4199999999999999,-0.027742784470319748,
5.4225000000000003,-0.024737715721130371,
5.4249999999999998,-0.021347999572753906,
5.4275000000000002,-0.017597675323486328,
5.4299999999999997,-0.0092075271531939507,
5.4325000000000001,-0.0049283108673989773,
5.4349999999999996,-0.0008895000210031867,
5.4375,0.0025963783264160156,
5.4400000000000004,0.006827513687312603,
5.4424999999999999,0.007140040397644043,
5.4450000000000003,0.0061543784104287624,
5.4474999999999998,0.0038464865647256374,
5.4500000000000002,-0.0039666891098022461,
5.4524999999999997,-0.0089671220630407333,
5.4550000000000001,-0.01430412195622921,
5.4574999999999996,-0.019689202308654785,
5.46,-0.029641985893249512,
5.4625000000000004,-0.033945243805646896,
5.4649999999999999,-0.037767689675092697,
5.4675000000000002,-0.041109323501586914,
5.4699999999999998,-0.046855013817548752,
5.4725000000000001,-0.049451392143964767,
5.4749999999999996,-0.05197564885020256,
5.4775,-0.054451823234558105,
5.4800000000000004,-0.058875285089015961,
5.4824999999999999,-0.060486000031232834,
5.4850000000000003,-0.061447620391845703,
5.4874999999999998,-0.061519742012023926,
5.4900000000000002,-0.058466594666242599,
5.4924999999999997,-0.055461525917053223,
5.4950000000000001,-0.051831405609846115,
5.4974999999999996,-0.048105120658874512,
5.5,-0.043417215347290039,
5.5025000000000004,-0.044258635491132736,
5.5049999999999999,-0.048369567841291428,
5.5075000000000003,-0.056447189301252365,
5.5099999999999998,-0.08553624153137207,
5.5125000000000002,-0.10589858144521713,
5.5149999999999997,-0.12873709201812744,
5.5175000000000001,-0.15239298343658447,
5.5199999999999996,-0.19273301959037781,
5.5225,-0.20388782024383545,
5.5250000000000004,-0.20518600940704346,
5.5274999999999999,-0.19383887946605682,
5.5300000000000002,-0.12486656755208969,
5.5324999999999998,-0.065005622804164886,
5.5350000000000001,0.011491378769278526,
5.5374999999999996,0.10279735177755356,
5.54,0.31584462523460388,
5.5425000000000004,0.42746484279632568,
5.5449999999999999,0.53415679931640625,
5.5475000000000003,0.62914097309112549,
5.5499999999999998,0.75826269388198853,
5.5525000000000002,0.78218305110931396,
5.5549999999999997,0.77504301071166992,
5.5575000000000001,0.73653006553649902,
5.5599999999999996,0.5763479471206665,
5.5625,0.46537679433822632,
5.5650000000000004,0.34358739852905273,
5.5674999999999999,0.2192256897687912,
5.5700000000000003,-0.0063467025756835938,
5.5724999999999998,-0.095128417015075684,
5.5750000000000002,-0.16280254721641541,
5.5774999999999997,-0.20821511745452881,
5.5800000000000001,-0.23792922496795654,
5.5824999999999996,-0.22884190082550049,
5.585,-0.20968160033226013,
5.5875000000000004,-0.18496792018413544,
5.5899999999999999,-0.13429045677185059,
5.5925000000000002,-0.11354347318410873,
5.5949999999999998,-0.097508430480957031,
5.5975000000000001,-0.086209379136562347,
5.5999999999999996,-0.07454971969127655,
5.6025,-0.071809098124504089,
5.6050000000000004,-0.069597363471984863,
5.6074999999999999,-0.067097149789333344,
5.6100000000000003,-0.05983690544962883,
5.6124999999999998,-0.055149000138044357,
5.6150000000000002,-0.050196647644042969,
5.6174999999999997,-0.045412581413984299,
5.6200000000000001,-0.037647485733032227,
5.6224999999999996,-0.035003028810024261,
5.625,-0.033151905983686447,
5.6275000000000004,-0.031925838440656662,
5.6299999999999999,-0.030339162796735764,
5.6325000000000003,-0.029545824974775314,
5.6349999999999998,-0.028536122292280197,
5.6375000000000002,-0.027237933129072189,
5.6399999999999997,-0.023800134658813477,
5.6425000000000001,-0.021780729293823242,
5.6449999999999996,-0.01966516301035881,
5.6475,-0.017525553703308105,
5.6500000000000004,-0.01322229765355587,
5.6524999999999999,-0.01108268927782774,
5.6550000000000002,-0.0089430809020996094,
5.6574999999999998,-0.0067553920671343803,
5.6600000000000001,-0.002259810920804739,
5.6624999999999996,2.4040540665737353e-05,
5.665,0.002283851383253932,
5.6675000000000004,0.0044955811463296413,
5.6699999999999999,0.0087026758119463921,
5.6725000000000003,0.010698040947318077,
5.6749999999999998,0.012669364921748638,
5.6775000000000002,0.01461664866656065,
5.6799999999999997,0.018727581948041916,
5.6825000000000001,0.020963352173566818,
5.6849999999999996,0.023391446098685265,
5.6875,0.02598782442510128,
5.6900000000000004,0.031709473580121994,
5.6924999999999999,0.034786663949489594,
5.6950000000000003,0.037984054535627365,
5.6974999999999998,0.041301649063825607,
5.7000000000000002,0.048297446221113205,
5.7024999999999997,0.052023731172084808,
5.7050000000000001,0.055894255638122559,
5.7074999999999996,0.06000518798828125,
5.71,0.068876147270202637,
5.7125000000000004,0.073660217225551605,
5.7149999999999999,0.078612565994262695,
5.7175000000000002,0.083709165453910828,
5.7199999999999998,0.094118714332580566,
5.7225000000000001,0.099311470985412598,
5.7249999999999996,0.10448019206523895,
5.7275,0.10964890569448471,
5.7300000000000004,0.12003441900014877,
5.7324999999999999,0.12539546191692352,
5.7350000000000003,0.13097286224365234,
5.7374999999999998,0.13681471347808838,
5.7400000000000002,0.14943599700927734,
5.7424999999999997,0.15614330768585205,
5.7450000000000001,0.16297082602977753,
5.7474999999999996,0.16977429389953613,
5.75,0.18244366347789764,
5.7525000000000004,0.18782874941825867,
5.7549999999999999,0.19230028986930847,
5.7575000000000003,0.19573807716369629,
5.7599999999999998,0.19915184378623962,
5.7625000000000002,0.19922396540641785,
5.7649999999999997,0.19831041991710663,
5.7675000000000001,0.19657950103282928,
5.7699999999999996,0.19121846556663513,
5.7725,0.18775662779808044,
5.7750000000000004,0.18376588821411133,
5.7774999999999999,0.1792222261428833,
5.7800000000000002,0.16797125339508057,
5.7824999999999998,0.16099950671195984,
5.7850000000000001,0.1530180424451828,
5.7874999999999996,0.14400283992290497,
5.79,0.12301544845104218,
5.7925000000000004,0.11130770295858383,
5.7949999999999999,0.099022984504699707,
5.7975000000000003,0.086401700973510742,
5.7999999999999998,0.06075044721364975,
5.8025000000000002,0.048008959740400314,
5.8049999999999997,0.035483837127685547,
5.8075000000000001,0.023247202858328819,
5.8099999999999996,-0.00012020270514767617,
5.8125,-0.01105864904820919,
5.8150000000000004,-0.021347999572753906,
5.8174999999999999,-0.030844014137983322,
5.8200000000000003,-0.046951174736022949,
5.8224999999999998,-0.053369998931884766,
5.8250000000000002,-0.058658920228481293,
5.8274999999999997,-0.062890052795410156,
5.8300000000000001,-0.068779990077018738,
5.8324999999999996,-0.070847474038600922,
5.835,-0.072650514543056488,
5.8375000000000004,-0.074429512023925781,
5.8399999999999999,-0.078492365777492523,
5.8425000000000002,-0.08092045783996582,
5.8449999999999998,-0.083516836166381836,
5.8475000000000001,-0.086161300539970398,
5.8499999999999996,-0.090825162827968597,
5.8525,-0.092435881495475769,
5.8550000000000004,-0.093325376510620117,
5.8574999999999999,-0.093469619750976562,
5.8600000000000003,-0.091570422053337097,
5.8624999999999998,-0.08986353874206543,
5.8650000000000002,-0.087964341044425964,
5.8674999999999997,-0.086161300539970398,
5.8700000000000001,-0.08378128707408905,
5.8724999999999996,-0.083588957786560059,
5.875,-0.084093809127807617,
5.8775000000000004,-0.08519967645406723,
5.8799999999999999,-0.088469192385673523,
5.8825000000000003,-0.090055868029594421,
5.8849999999999998,-0.091185770928859711,
5.8875000000000002,-0.09164254367351532,
5.8899999999999997,-0.090127989649772644,
5.8925000000000001,-0.088228784501552582,
5.8949999999999996,-0.085848771035671234,
5.8975,-0.083252392709255219,
5.9000000000000004,-0.07887701690196991,
5.9024999999999999,-0.077650949358940125,
5.9050000000000002,-0.077314376831054688,
5.9074999999999998,-0.077915392816066742,
5.9100000000000001,-0.081425309181213379,
5.9124999999999996,-0.083829365670681,
5.915,-0.08628150075674057,
5.9175000000000004,-0.08844514936208725,
5.9199999999999999,-0.091089606285095215,
5.9225000000000003,-0.091354057192802429,
5.9249999999999998,-0.09094536304473877,
5.9275000000000002,-0.090007781982421875,
5.9299999999999997,-0.08731524646282196,
5.9325000000000001,-0.085993014276027679,
5.9349999999999996,-0.084887146949768066,
5.9375,-0.084141895174980164,
5.9400000000000004,-0.083709165453910828,
5.9424999999999999,-0.083925530314445496,
5.9450000000000003,-0.084310173988342285,
5.9474999999999998,-0.084718868136405945,
5.9500000000000002,-0.08524775505065918,
5.9524999999999997,-0.085223719477653503,
5.9550000000000001,-0.084959268569946289,
5.9574999999999996,-0.08445441722869873,
5.96,-0.082795619964599609,
5.9625000000000004,-0.081689760088920593,
5.9649999999999999,-0.080415606498718262,
5.9675000000000002,-0.079045295715332031,
5.9699999999999998,-0.076136395335197449,
5.9725000000000001,-0.074742041528224945,
5.9749999999999996,-0.07351597398519516,
5.9775,-0.072554349899291992,
5.9800000000000004,-0.071616768836975098,
5.9824999999999999,-0.071736976504325867,
5.9850000000000003,-0.072241827845573425,
5.9874999999999998,-0.073011122643947601,
5.9900000000000002,-0.07488628476858139,
5.9924999999999997,-0.07567962259054184,
5.9950000000000001,-0.076136395335197449,
5.9974999999999996,-0.076184473931789398,
6,-0.074742041528224945,83.665336608886719
6.0025000000000004,-0.073299609124660492,
6.0049999999999999,-0.071472525596618652,
6.0075000000000003,-0.069429084658622742,
6.0099999999999998,-0.06531815230846405,
6.0125000000000002,-0.063635312020778656,
6.0149999999999997,-0.062385201454162598,
6.0175000000000001,-0.061688028275966644,
6.0199999999999996,-0.062216918915510178,
6.0225,-0.063370868563652039,
6.0250000000000004,-0.064981579780578613,
6.0274999999999999,-0.066904827952384949,
6.0300000000000002,-0.070823431015014648,
6.0324999999999998,-0.072386071085929871,
6.0350000000000001,-0.073443852365016937,
6.0374999999999996,-0.073828503489494324,
6.04,-0.072578392922878265,
6.0425000000000004,-0.071087881922721863,
6.0449999999999999,-0.06923675537109375,
6.0475000000000003,-0.067241393029689789,
6.0499999999999998,-0.063755512237548828,
6.0525000000000002,-0.062601566314697266,
6.0549999999999997,-0.061928432434797287,
6.0575000000000001,-0.061712067574262619,
6.0599999999999996,-0.0622890405356884,
6.0625,-0.062721773982048035,
6.0650000000000004,-0.063082382082939148,
6.0674999999999999,-0.063226625323295593,
6.0700000000000003,-0.062697730958461761,
6.0724999999999998,-0.062072675675153732,
6.0750000000000002,-0.061351459473371506,
6.0774999999999997,-0.060630243271589279,
6.0800000000000001,-0.059524379670619965,
6.0824999999999996,-0.059235893189907074,
6.085,-0.059115689247846603,
6.0875000000000004,-0.059091649949550629,
6.0899999999999999,-0.059115689247846603,
6.0925000000000002,-0.059019528329372406,
6.0949999999999998,-0.058803163468837738,
6.0975000000000001,-0.058466594666242599,
6.0999999999999996,-0.057601135224103928,
6.1025,-0.057192444801330566,
6.1050000000000004,-0.056855879724025726,
6.1074999999999999,-0.056663554161787033,
6.1100000000000003,-0.056615471839904785,
6.1124999999999998,-0.056711636483669281,
6.1150000000000002,-0.056783758103847504,
6.1174999999999997,-0.056807797402143478,
6.1200000000000001,-0.05630294606089592,
6.1224999999999996,-0.055750012397766113,
6.125,-0.055004756897687912,
6.1275000000000004,-0.054043136537075043,
6.1299999999999999,-0.05185544490814209,
6.1325000000000003,-0.050725542008876801,
6.1349999999999998,-0.049667757004499435,
6.1375000000000002,-0.048682093620300293,
6.1399999999999997,-0.047023296356201172,
6.1425000000000001,-0.046278040856122971,
6.1449999999999996,-0.045556824654340744,
6.1475,-0.044835608452558517,
6.1500000000000004,-0.043272972106933594,
6.1524999999999999,-0.042503677308559418,
6.1550000000000002,-0.041830539703369141,
6.1574999999999998,-0.041277609765529633,
6.1600000000000001,-0.040868919342756271,
6.1624999999999996,-0.041061244904994965,
6.165,-0.041493974626064301,
6.1675000000000004,-0.042094986885786057,
6.1699999999999999,-0.04336913675069809,
6.1725000000000003,-0.043753784149885178,
6.1749999999999998,-0.043777823448181152,
6.1775000000000002,-0.043321054428815842,
6.1799999999999997,-0.040604472160339355,
6.1825000000000001,-0.038272541016340256,
6.1849999999999996,-0.035315554589033127,
6.1875,-0.031781595200300217,
6.1900000000000004,-0.023295283317565918,
6.1924999999999999,-0.018631419166922569,
6.1950000000000003,-0.013871392235159874,
6.1974999999999998,-0.0093036890029907227,
6.2000000000000002,-0.0017309188842773438,
6.2024999999999997,0.00067313516046851873,
6.2050000000000001,0.0017790000420063734,
6.2074999999999996,0.0013943513622507453,
6.21,-0.0042551755905151367,
6.2125000000000004,-0.0093998517841100693,
6.2149999999999999,-0.015770595520734787,
6.2175000000000002,-0.022982757538557053,
6.2199999999999998,-0.03800809383392334,
6.2225000000000001,-0.044859647750854492,
6.2249999999999996,-0.050701498985290527,
6.2275,-0.055293243378400803,
6.2300000000000004,-0.060486000031232834,
6.2324999999999999,-0.06137549877166748,
6.2350000000000003,-0.061519742012023926,
6.2374999999999998,-0.061255298554897308,
6.2400000000000002,-0.060966812074184418,
6.2424999999999997,-0.06137549877166748,
6.2450000000000001,-0.062240958213806152,
6.2474999999999996,-0.063442990183830261,
6.25,-0.065798960626125336,
6.2525000000000004,-0.066327854990959167,
6.2549999999999999,-0.066087447106838226,
6.2575000000000003,-0.065005622804164886,
6.2599999999999998,-0.06108701229095459,
6.2625000000000002,-0.059235893189907074,
6.2649999999999997,-0.058514676988124847,
6.2675000000000001,-0.059860944747924805,
6.2699999999999996,-0.072193741798400879,
6.2725,-0.084430381655693054,
6.2750000000000004,-0.1008981466293335,
6.2774999999999999,-0.12111624330282211,
6.2800000000000002,-0.16773085296154022,
6.2824999999999998,-0.19008855521678925,
6.2850000000000001,-0.20833532512187958,
6.2874999999999996,-0.21941801905632019,
6.29,-0.20790259540081024,
6.2925000000000004,-0.17991940677165985,
6.2949999999999999,-0.1346510648727417,
6.2975000000000003,-0.071376368403434753,
6.2999999999999998,0.10541777312755585,
6.3025000000000002,0.21350404620170593,
6.3049999999999997,0.32868227362632751,
6.3075000000000001,0.44491827487945557,
6.3099999999999996,0.65279686450958252,
6.3125,0.73032760620117188,
6.3150000000000004,0.78199070692062378,
6.3174999999999999,0.80333870649337769,
6.3200000000000003,0.74809354543685913,
6.3224999999999998,0.67409676313400269,
6.3250000000000002,0.57490551471710205,
6.3274999999999997,0.4573712944984436,
6.3300000000000001,0.19994518160820007,
6.3324999999999996,0.076833568513393402,
6.335,-0.032743215560913086,
6.3375000000000004,-0.12347221374511719,
6.3399999999999999,-0.23790518939495087,
6.3425000000000002,-0.26184958219528198,
6.3449999999999998,-0.26689809560775757,
6.3475000000000001,-0.25711357593536377,
6.3499999999999996,-0.2114846408367157,
6.3525,-0.18422266840934753,
6.3550000000000004,-0.15847525000572205,
6.3574999999999999,-0.13630986213684082,
6.3600000000000003,-0.10580241680145264,
6.3624999999999998,-0.096955500543117523,
6.3650000000000002,-0.091209813952445984,
6.3674999999999997,-0.087507568299770355,
6.3700000000000001,-0.082435011863708496,
6.3724999999999996,-0.07983863353729248,
6.375,-0.076857611536979675,
6.3775000000000004,-0.073540017008781433,
6.3799999999999999,-0.066520176827907562,
6.3825000000000003,-0.063226625323295593,
6.3849999999999998,-0.060221552848815918,
6.3875000000000002,-0.057529013603925705,
6.3899999999999997,-0.052961312234401703,
6.3925000000000001,-0.050893824547529221,
6.3949999999999996,-0.048898458480834961,
6.3975,-0.046927135437726974,
6.4000000000000004,-0.043056607246398926,
6.4024999999999999,-0.041181445121765137,
6.4050000000000002,-0.039402447640895844,
6.4074999999999998,-0.037695568054914474,
6.4100000000000001,-0.034353934228420258,
6.4124999999999996,-0.032623015344142914,
6.415,-0.030819972977042198,
6.4175000000000004,-0.028848648071289062,
6.4199999999999999,-0.024569433182477951,
6.4225000000000003,-0.022309621796011925,
6.4249999999999998,-0.020049810409545898,
6.4275000000000002,-0.017862122505903244,
6.4299999999999997,-0.01384735107421875,
6.4325000000000001,-0.012044310569763184,
6.4349999999999996,-0.010361473076045513,
6.4375,-0.0087026758119463921,
6.4400000000000004,-0.0051687164232134819,
6.4424999999999999,-0.0031493108253926039,
6.4450000000000003,-0.00093758106231689453,
6.4474999999999998,0.0015145540237426758,
6.4500000000000002,0.006923675537109375,
6.4524999999999997,0.0097845001146197319,
6.4550000000000001,0.012693405151367188,
6.4574999999999996,0.015602311119437218,
6.46,0.021420121192932129,
6.4625000000000004,0.024401148781180382,
6.4649999999999999,0.02752641960978508,
6.4675000000000002,0.030819972977042198,
6.4699999999999998,0.038056176155805588,
6.4725000000000001,0.042046904563903809,
6.4749999999999996,0.046229958534240723,
6.4775,0.050581298768520355,
6.4800000000000004,0.059884987771511078,
6.4824999999999999,0.064909458160400391,
6.4850000000000003,0.07027050107717514,
6.4874999999999998,0.076088309288024902,
6.4900000000000002,0.089575052261352539,
6.4924999999999997,0.09734015166759491,
6.4950000000000001,0.10570625960826874,
6.4974999999999996,0.11455317586660385,
6.5,0.13246338069438934,
6.5025000000000004,0.14090161025524139,
6.5049999999999999,0.148546501994133,
6.5075000000000003,0.15513360500335693,
6.5099999999999998,0.16465365886688232,
6.5125000000000002,0.16768276691436768,
6.5149999999999997,0.16982237994670868,
6.5175000000000001,0.1713850200176239,
6.5199999999999996,0.17412564158439636,
6.5225,0.17583250999450684,
6.5250000000000004,0.17797212302684784,
6.5274999999999999,0.18044829368591309,
6.5300000000000002,0.18571317195892334,
6.5324999999999998,0.18775662779808044,
6.5350000000000001,0.18886248767375946,
6.5374999999999996,0.18859803676605225,
6.54,0.18266002833843231,
6.5425000000000004,0.17664989829063416,
6.5449999999999999,0.16857227683067322,
6.5475000000000003,0.15861949324607849,
6.5499999999999998,0.13421833515167236,
6.5525000000000002,0.1205633133649826,
6.5549999999999997,0.10652363300323486,
6.5575000000000001,0.092483960092067719,
6.5599999999999996,0.065750882029533386,
6.5625,0.053538285195827484,
6.5650000000000004,0.042239230126142502,
6.5674999999999999,0.031781595200300217,
6.5700000000000003,0.013054013252258301,
6.5724999999999998,0.004351337905973196,
6.5750000000000002,-0.0041349730454385281,
6.5774999999999997,-0.012621283531188965,
6.5800000000000001,-0.029906433075666428,
6.5824999999999996,-0.038681231439113617,
6.585,-0.047383904457092285,
6.5875000000000004,-0.055822134017944336,
6.5899999999999999,-0.070967674255371094,
6.5925000000000002,-0.077266298234462738,
6.5949999999999998,-0.082483097910881042,
6.5975000000000001,-0.086569987237453461,
6.5999999999999996,-0.091594457626342773,
6.6025,-0.092820525169372559,
6.6050000000000004,-0.093469619750976562,
6.6074999999999999,-0.093806192278862,
6.6100000000000003,-0.094262957572937012,
6.6124999999999998,-0.094743773341178894,
6.6150000000000002,-0.095489025115966797,
6.6174999999999997,-0.096474692225456238,
6.6200000000000001,-0.098998948931694031,
6.6224999999999996,-0.10029713809490204,
6.625,-0.10147511959075928,
6.6275000000000004,-0.10241270065307617,
6.6299999999999999,-0.10332624614238739,
6.6325000000000003,-0.10325412452220917,
6.6349999999999998,-0.10284543037414551,
6.6375000000000002,-0.10214825719594955,
6.6399999999999997,-0.10012885183095932,
6.6425000000000001,-0.098950862884521484,
6.6449999999999996,-0.097724795341491699,
6.6475,-0.096474692225456238,
6.6500000000000004,-0.09414275735616684,
6.6524999999999999,-0.093084976077079773,
6.6550000000000002,-0.092123351991176605,
6.6574999999999998,-0.091305971145629883,
6.6600000000000001,-0.090272232890129089,
6.6624999999999996,-0.090103946626186371,
6.665,-0.090200111269950867,
6.6675000000000004,-0.090608797967433929,
6.6699999999999999,-0.092243552207946777,
6.6725000000000003,-0.093373462557792664,
6.6749999999999998,-0.094647608697414398,
6.6775000000000002,-0.095945797860622406,
6.6799999999999997,-0.098325811326503754,
6.6825000000000001,-0.099239349365234375,
6.6849999999999996,-0.099888443946838379,
6.6875,-0.10022501647472382,
6.6900000000000004,-0.10003268718719482,
6.6924999999999999,-0.099551878869533539,
6.6950000000000003,-0.098902784287929535,
6.6974999999999998,-0.098085403442382812,
6.7000000000000002,-0.096282362937927246,
6.7024999999999997,-0.095344781875610352,
6.7050000000000001,-0.094383165240287781,
6.7074999999999996,-0.09339749813079834,
6.71,-0.09123384952545166,
6.7125000000000004,-0.090031825006008148,
6.7149999999999999,-0.08878171443939209,
6.7175000000000002,-0.087459489703178406,
6.7199999999999998,-0.084959268569946289,
6.7225000000000001,-0.083925530314445496,
6.7249999999999996,-0.083132192492485046,
6.7275,-0.082651376724243164,
6.7300000000000004,-0.082651376724243164,
6.7324999999999999,-0.0830841064453125,
6.7350000000000003,-0.083661079406738281,
6.7374999999999998,-0.084334217011928558,
6.7400000000000002,-0.085343919694423676,
6.7424999999999997,-0.085512205958366394,
6.7450000000000001,-0.085391998291015625,
6.7474999999999996,-0.084959268569946289,
6.75,-0.083372592926025391,
6.7525000000000004,-0.082386933267116547,
6.7549999999999999,-0.081401273608207703,
6.7575000000000003,-0.080511771142482758,
6.7599999999999998,-0.07921358197927475,
6.7625000000000002,-0.078828930854797363,
6.7649999999999997,-0.078636609017848969,
6.7675000000000001,-0.078516408801078796,
6.7699999999999996,-0.078276000916957855,
6.7725,-0.077987514436244965,
6.7750000000000004,-0.077458620071411133,
6.7774999999999999,-0.076689325273036957,
6.7800000000000002,-0.07426123321056366,
6.7824999999999998,-0.072698593139648438,
6.7850000000000001,-0.07101576030254364,
6.7874999999999996,-0.069332920014858246,
6.79,-0.066592298448085785,
6.7925000000000004,-0.065823003649711609,
6.7949999999999999,-0.065606638789176941,
6.7975000000000003,-0.066015325486660004,
6.7999999999999998,-0.068395338952541351,
6.8025000000000002,-0.070078179240226746,
6.8049999999999997,-0.071809098124504089,
6.8075000000000001,-0.073299609124660492,
6.8099999999999996,-0.074645876884460449,
6.8125,-0.074213147163391113,
6.8150000000000004,-0.072963044047355652,
6.8174999999999999,-0.07106383889913559,
6.8200000000000003,-0.066087447106838226,
6.8224999999999998,-0.063611268997192383,
6.8250000000000002,-0.061519742012023926,
6.8274999999999997,-0.060077309608459473,
6.8300000000000001,-0.059500336647033691,
6.8324999999999996,-0.060317717492580414,
6.835,-0.061688028275966644,
6.8375000000000004,-0.063394904136657715,
6.8399999999999999,-0.066712498664855957,
6.8425000000000002,-0.06786644458770752,
6.8449999999999998,-0.068491503596305847,
6.8475000000000001,-0.068491503596305847,
6.8499999999999996,-0.066832706332206726,
6.8525,-0.065342187881469727,
6.8550000000000004,-0.063659355044364929,
6.8574999999999999,-0.061952471733093262,
6.8600000000000003,-0.059139728546142578,
6.8624999999999998,-0.058298312127590179,
6.8650000000000002,-0.057937704026699066,
6.8674999999999997,-0.058081947267055511,
6.8700000000000001,-0.059740744531154633,
6.8724999999999996,-0.06103893369436264,
6.875,-0.062433283776044846,
6.8775000000000004,-0.063779555261135101,
6.8799999999999999,-0.06565471738576889,
6.8825000000000003,-0.065967246890068054,
6.8849999999999998,-0.065774917602539062,
6.8875000000000002,-0.065173909068107605,
6.8899999999999997,-0.063130460679531097,
6.8925000000000001,-0.06200055405497551,
6.8949999999999996,-0.061062972992658615,
6.8975,-0.060437917709350586,
6.9000000000000004,-0.060293674468994141,
6.9024999999999999,-0.060726404190063477,
6.9050000000000002,-0.061327420175075531,
6.9074999999999998,-0.061928432434797287,
6.9100000000000001,-0.062385201454162598,
6.9124999999999996,-0.061976514756679535,
6.915,-0.06103893369436264,
6.9175000000000004,-0.059596501290798187,
6.9199999999999999,-0.055533647537231445,
6.9225000000000003,-0.053177677094936371,
6.9249999999999998,-0.050821702927350998,
6.9275000000000002,-0.048561893403530121,
6.9299999999999997,-0.044667325913906097,
6.9325000000000001,-0.043080650269985199,
6.9349999999999996,-0.041686296463012695,
6.9375,-0.04046022891998291,
6.9400000000000004,-0.03829658031463623,
6.9424999999999999,-0.037358999252319336,
6.9450000000000003,-0.03658970445394516,
6.9474999999999998,-0.036036770790815353,
6.9500000000000002,-0.036156974732875824,
6.9524999999999997,-0.036998391151428223,
6.9550000000000001,-0.038464866578578949,
6.9574999999999996,-0.040532350540161133,
6.96,-0.045797228813171387,
6.9625000000000004,-0.048489771783351898,
6.9649999999999999,-0.050701498985290527,
6.9675000000000002,-0.052047770470380783,
6.9699999999999998,-0.050629377365112305,
6.9725000000000001,-0.047407947480678558,
6.9749999999999996,-0.042431555688381195,
6.9775,-0.035916566848754883,
6.9800000000000004,-0.0200017299503088,
6.9824999999999999,-0.011779865249991417,
6.9850000000000003,-0.0042792162857949734,
6.9874999999999998,0.0018511216621845961,
6.9900000000000002,0.0081737842410802841,
6.9924999999999997,0.0078852977603673935,
6.9950000000000001,0.0053850812837481499,
6.9974999999999996,0.0008895000210031867,
7,-0.012116432189941406,82.840240478515625
7.0025000000000004,-0.019569000229239464,
7.0049999999999999,-0.026997527107596397,
7.0075000000000003,-0.033945243805646896,
7.0099999999999998,-0.045412581413984299,
7.0125000000000002,-0.049739878624677658,
7.0149999999999997,-0.053153634071350098,
7.0175000000000001,-0.055798094719648361,
7.0199999999999996,-0.059572458267211914,
7.0225,-0.06103893369436264,
7.0250000000000004,-0.062385201454162598,
7.0274999999999999,-0.063683390617370605,
7.0300000000000002,-0.065943203866481781,
7.0324999999999998,-0.066664420068264008,
7.0350000000000001,-0.066880784928798676,
7.0374999999999996,-0.066472098231315613,
7.04,-0.063491068780422211,
7.0425000000000004,-0.061135094612836838,
7.0449999999999999,-0.05863487720489502,
7.0475000000000003,-0.056567393243312836,
7.0499999999999998,-0.056879919022321701,
7.0525000000000002,-0.060966812074184418,
7.0549999999999997,-0.068683825433254242,
7.0575000000000001,-0.080535814166069031,
7.0599999999999996,-0.11642833799123764,
7.0625,-0.13907453417778015,
7.0650000000000004,-0.16292273998260498,
7.0674999999999999,-0.18583337962627411,
7.0700000000000003,-0.21819195151329041,
7.0724999999999998,-0.22177398204803467,
7.0750000000000002,-0.21311938762664795,
7.0774999999999997,-0.18977603316307068,
7.0800000000000001,-0.092916689813137054,
7.0824999999999996,-0.018823742866516113,
7.085,0.070775352418422699,
7.0875000000000004,0.17287552356719971,
7.0899999999999999,0.39647659659385681,
7.0925000000000002,0.50617361068725586,
7.0949999999999998,0.60550910234451294,
7.0975000000000001,0.68779987096786499,
7.0999999999999996,0.77816826105117798,
7.1025,0.77848076820373535,
7.1050000000000004,0.7471078634262085,
7.1074999999999999,0.68563622236251831,
7.1100000000000003,0.49018663167953491,
7.1124999999999998,0.36957523226737976,
7.1150000000000002,0.24434804916381836,
7.1174999999999997,0.12260675430297852,
7.1200000000000001,-0.08269946277141571,
7.1224999999999996,-0.15662412345409393,
7.125,-0.20845553278923035,
7.1275000000000004,-0.23865044116973877,
7.1299999999999999,-0.24454037845134735,
7.1325000000000003,-0.22828897833824158,
7.1349999999999998,-0.20528218150138855,
7.1375000000000002,-0.17967900633811951,
7.1399999999999997,-0.13330480456352234,
7.1425000000000001,-0.11623601615428925,
7.1449999999999996,-0.10397534072399139,
7.1475,-0.096041962504386902,
7.1500000000000004,-0.089046165347099304,
7.1524999999999999,-0.087555646896362305,
7.1550000000000002,-0.086113214492797852,
7.1574999999999998,-0.084021687507629395,
7.1600000000000001,-0.07709801197052002,
7.1624999999999996,-0.072506271302700043,
7.165,-0.067577958106994629,
7.1675000000000004,-0.062673687934875488,
7.1699999999999999,-0.053922932595014572,
7.1725000000000003,-0.050268769264221191,
7.1749999999999998,-0.047095417976379395,
7.1775000000000002,-0.044186513870954514,
7.1799999999999997,-0.03875335305929184,
7.1825000000000001,-0.035988688468933105,
7.1849999999999996,-0.033175945281982422,
7.1875,-0.030363202095031738,
7.1900000000000004,-0.025314688682556152,
7.1924999999999999,-0.023319324478507042,
7.1950000000000003,-0.021756689995527267,
7.1974999999999998,-0.02062678337097168,
7.2000000000000002,-0.019256472587585449,
7.2024999999999997,-0.018655460327863693,
7.2050000000000001,-0.017814040184020996,
7.2074999999999996,-0.016587972640991211,
7.21,-0.012597243301570415,
7.2125000000000004,-0.0099047031253576279,
7.2149999999999999,-0.0068996353074908257,
7.2175000000000002,-0.0038224458694458008,
7.2199999999999998,0.0016347568016499281,
7.2225000000000001,0.0036782026290893555,
7.2249999999999996,0.0051446757279336452,
7.2275,0.0061062974855303764,
7.2300000000000004,0.0072602434083819389,
7.2324999999999999,0.0079574193805456161,
7.2350000000000003,0.0091113653033971786,
7.2374999999999998,0.010938446037471294,
7.2400000000000002,0.017164945602416992,
7.2424999999999997,0.021516283974051476,
7.2450000000000001,0.026540756225585938,
7.2474999999999996,0.031997960060834885,
7.25,0.043152771890163422,
7.2525000000000004,0.048393607139587402,
7.2549999999999999,0.053153634071350098,
7.2575000000000003,0.057408809661865234,
7.2599999999999998,0.064596936106681824,
7.2625000000000002,0.06786644458770752,
7.2649999999999997,0.071160003542900085,
7.2675000000000001,0.074766084551811218,
7.2699999999999996,0.083588957786560059,
7.2725,0.089046165347099304,
7.2750000000000004,0.095200538635253906,
7.2774999999999999,0.10197997093200684,
7.2800000000000002,0.11671682447195053,
7.2824999999999998,0.12419342994689941,
7.2850000000000001,0.13142964243888855,
7.2874999999999996,0.13823311030864716,
7.29,0.15020529925823212,
7.2925000000000004,0.15530189871788025,
7.2949999999999999,0.15996575355529785,
7.2975000000000003,0.16429305076599121,
7.2999999999999998,0.17258703708648682,
7.3025000000000002,0.17674605548381805,
7.3049999999999997,0.18097719550132751,
7.3075000000000001,0.18513619899749756,
7.3099999999999996,0.19261281192302704,
7.3125,0.19540151953697205,
7.3150000000000004,0.19720456004142761,
7.3174999999999999,0.19775748252868652,
7.3200000000000003,0.19456009566783905,
7.3224999999999998,0.19066552817821503,
7.3250000000000002,0.18523237109184265,
7.3274999999999997,0.17842888832092285,
7.3300000000000001,0.16114374995231628,
7.3324999999999996,0.15099863708019257,
7.335,0.13998806476593018,
7.3375000000000004,0.12830436229705811,
7.3399999999999999,0.10332624614238739,
7.3425000000000002,0.090344354510307312,
7.3449999999999998,0.077218219637870789,
7.3475000000000001,0.064212284982204437,
7.3499999999999996,0.039258204400539398,
7.3525,0.027718743309378624,
7.3550000000000004,0.016972621902823448,
7.3574999999999999,0.0071160001680254936,
7.3600000000000003,-0.010048946365714073,
7.3624999999999998,-0.017549594864249229,
7.3650000000000002,-0.024521350860595703,
7.3674999999999997,-0.031132500618696213,
7.3700000000000001,-0.04365762323141098,
7.3724999999999996,-0.04969179630279541,
7.375,-0.055485568940639496,
7.3775000000000004,-0.060990851372480392,
7.3799999999999999,-0.070558987557888031,
7.3825000000000003,-0.074405476450920105,
7.3849999999999998,-0.077578827738761902,
7.3875000000000002,-0.080054998397827148,
7.3899999999999997,-0.083324514329433441,
7.3925000000000001,-0.084430381655693054,
7.3949999999999996,-0.085343919694423676,
7.3975,-0.086233422160148621,
7.4000000000000004,-0.088180705904960632,
7.4024999999999999,-0.089214444160461426,
7.4050000000000002,-0.090224146842956543,
7.4074999999999998,-0.091089606285095215,
7.4100000000000001,-0.092099308967590332,
7.4124999999999996,-0.092147395014762878,
7.415,-0.091955065727233887,
7.4175000000000004,-0.091570422053337097,
7.4199999999999999,-0.090680919587612152,
7.4225000000000003,-0.090368390083312988,
7.4249999999999998,-0.090224146842956543,
7.4275000000000002,-0.090200111269950867,
7.4299999999999997,-0.090248189866542816,
7.4325000000000001,-0.090103946626186371,
7.4349999999999996,-0.089647173881530762,
7.4375,-0.088877879083156586,
7.4400000000000004,-0.08632957935333252,
7.4424999999999999,-0.084815025329589844,
7.4450000000000003,-0.083348557353019714,
7.4474999999999998,-0.082146525382995605,
7.4500000000000002,-0.081305108964443207,
7.4524999999999997,-0.081882081925868988,
7.4550000000000001,-0.0830841064453125,
7.4574999999999996,-0.084839068353176117,
7.46,-0.08919040858745575,
7.4625000000000004,-0.091281935572624207,
7.4649999999999999,-0.093036890029907227,
7.4675000000000002,-0.094238921999931335,
7.4699999999999998,-0.094719730317592621,
7.4725000000000001,-0.093974471092224121,
7.4749999999999996,-0.092748403549194336,
7.4775,-0.091113649308681488,
7.4800000000000004,-0.08736332505941391,
7.4824999999999999,-0.085512205958366394,
7.4850000000000003,-0.083853408694267273,
7.4874999999999998,-0.082483097910881042,
7.4900000000000002,-0.080704092979431152,
7.4924999999999997,-0.080367527902126312,
7.4950000000000001,-0.080367527902126312,
7.4974999999999996,-0.080680057406425476,
7.5,-0.081930160522460938,
7.5025000000000004,-0.082651376724243164,
7.5049999999999999,-0.083276435732841492,
7.5075000000000003,-0.083637043833732605,
7.5099999999999998,-0.083204314112663269,
7.5125000000000002,-0.082242690026760101,
7.5149999999999997,-0.080776214599609375,
7.5175000000000001,-0.078901052474975586,
7.5199999999999996,-0.074405476450920105,
7.5225,-0.072145663201808929,
7.5250000000000004,-0.070150300860404968,
7.5274999999999999,-0.068515539169311523,
7.5300000000000002,-0.066688463091850281,
7.5324999999999998,-0.066496133804321289,
7.5350000000000001,-0.066688463091850281,
7.5374999999999996,-0.067169271409511566,
7.54,-0.068299174308776855,
7.5425000000000004,-0.068707868456840515,
7.5449999999999999,-0.068876147270202637,
7.5475000000000003,-0.068731904029846191,
7.5499999999999998,-0.067529879510402679,
7.5525000000000002,-0.066520176827907562,
7.5549999999999997,-0.065390273928642273,
7.5575000000000001,-0.064140163362026215,
7.5599999999999996,-0.061808228492736816,
7.5625,-0.060822568833827972,
7.5650000000000004,-0.060053270310163498,
7.5674999999999999,-0.059500336647033691,
7.5700000000000003,-0.059067606925964355,
7.5724999999999998,-0.059091649949550629,
7.5750000000000002,-0.059235893189907074,
7.5774999999999997,-0.059404175728559494,
7.5800000000000001,-0.059620540589094162,
7.5824999999999996,-0.059596501290798187,
7.585,-0.059452258050441742,
7.5875000000000004,-0.059235893189907074,
7.5899999999999999,-0.058706998825073242,
7.5925000000000002,-0.058538716286420822,
7.5949999999999998,-0.058490633964538574,
7.5975000000000001,-0.05858679860830307,
7.5999999999999996,-0.059211850166320801,
7.6025,-0.059692662209272385,
7.6050000000000004,-0.060173474252223969,
7.6074999999999999,-0.060606203973293304,
7.6100000000000003,-0.061135094612836838,
7.6124999999999998,-0.061159133911132812,
7.6150000000000002,-0.061014890670776367,
7.6174999999999997,-0.060726404190063477,
7.6200000000000001,-0.059716701507568359,
7.6224999999999996,-0.059043567627668381,
7.625,-0.058250229805707932,
7.6275000000000004,-0.05738477036356926,
7.6299999999999999,-0.055413447320461273,
7.6325000000000003,-0.054403744637966156,
7.6349999999999998,-0.053442120552062988,
7.6375000000000002,-0.052648782730102539,
7.6399999999999997,-0.051951609551906586,
7.6425000000000001,-0.052192013710737228,
7.6449999999999996,-0.052865147590637207,
