Data Set 1:Time(s),Data Set 1:EKG(mV),Data Set 1:Heart Rate(bpm)
0,0.12779951095581055,18.575851440429688
0.0025000000000000001,0.12902557849884033,
0.0050000000000000001,0.12871305644512177,
0.0074999999999999997,0.12710234522819519,
0.01,0.12472232431173325,
0.012500000000000001,0.12212594598531723,
0.014999999999999999,0.11902471631765366,
0.017500000000000002,0.11943340301513672,
0.02,0.12469828128814697,
0.022499999999999999,0.12895345687866211,
0.025000000000000001,0.13352116942405701,
0.0275,0.13780038058757782,
0.029999999999999999,0.14332970976829529,
0.032500000000000001,0.14407496154308319,
0.035000000000000003,0.14349798858165741,
0.037499999999999999,0.14193534851074219,
0.040000000000000001,0.13734361529350281,
0.042500000000000003,0.13501167297363281,
0.044999999999999998,0.132872074842453,
0.047500000000000001,0.13075649738311768,
0.050000000000000003,0.12549161911010742,
0.052499999999999998,0.12164513766765594,
0.055,0.11669278144836426,
0.057500000000000002,0.11073072999715805,
0.059999999999999998,0.097917124629020691,
0.0625,0.092844568192958832,
0.065000000000000002,0.090079903602600098,
0.067500000000000004,0.090704962611198425,
0.070000000000000007,0.10443210601806641,
0.072499999999999995,0.11751016229391098,
0.074999999999999997,0.13376156985759735,
0.077499999999999999,0.15171985328197479,
0.080000000000000002,0.18552085757255554,
0.082500000000000004,0.19763728976249695,
0.085000000000000006,0.20453691482543945,
0.087499999999999994,0.20540237426757812,
0.089999999999999997,0.18912693858146667,
0.092499999999999999,0.17390927672386169,
0.095000000000000001,0.15611927211284637,
0.097500000000000003,0.13777634501457214,
0.10000000000000001,0.10717272758483887,
0.10249999999999999,0.097893081605434418,
0.105,0.09368598461151123,
0.1075,0.09447932243347168,
0.11,0.10806223005056381,
0.1125,0.11827945709228516,
0.115,0.12885729968547821,
0.11749999999999999,0.13842543959617615,
0.12,0.15114288032054901,
0.1225,0.15381138026714325,
0.125,0.15453259646892548,
0.1275,0.15422007441520691,
0.13,0.15496532618999481,
0.13250000000000001,0.15816271305084229,
0.13500000000000001,0.16417285799980164,
0.13750000000000001,0.17313997447490692,
0.14000000000000001,0.19792577624320984,
0.14249999999999999,0.21155676245689392,
0.14499999999999999,0.22410592436790466,
0.14749999999999999,0.23405870795249939,
0.14999999999999999,0.2414151132106781,
0.1525,0.23756861686706543,
0.155,0.22876977920532227,
0.1575,0.21576385200023651,
0.16,0.1822032630443573,
0.16250000000000001,0.1645815372467041,
0.16500000000000001,0.1482580155134201,
0.16750000000000001,0.13429045677185059,
0.17000000000000001,0.11551479995250702,
0.17249999999999999,0.11061052978038788,
0.17499999999999999,0.10806223005056381,
0.17749999999999999,0.10707657039165497,
0.17999999999999999,0.10683616250753403,
0.1825,0.10640343278646469,
0.185,0.10544180870056152,
0.1875,0.10407149791717529,
0.19,0.1015472412109375,
0.1925,0.10130684077739716,
0.19500000000000001,0.10224442183971405,
0.19750000000000001,0.10448019206523895,
0.20000000000000001,0.11159618943929672,
0.20250000000000001,0.11508207023143768,
0.20499999999999999,0.11712551116943359,
0.20749999999999999,0.11650045961141586,
0.20999999999999999,0.10270118713378906,
0.21249999999999999,0.087916254997253418,
0.215,0.067553922533988953,
0.2175,0.042094986885786057,
0.22,-0.018727581948041916,
0.2225,-0.049860082566738129,
0.22500000000000001,-0.077723070979118347,
0.22750000000000001,-0.099022984504699707,
0.23000000000000001,-0.10815839469432831,
0.23250000000000001,-0.089599095284938812,
0.23499999999999999,-0.05214393138885498,
0.23749999999999999,0.0057216486893594265,
0.23999999999999999,0.1828523576259613,
0.24249999999999999,0.29853543639183044,
0.245,0.42724847793579102,
0.2475,0.56331795454025269,
0.25,0.82843703031539917,
0.2525,0.94135546684265137,
0.255,1.0305458307266235,
0.25750000000000001,1.0892288684844971,
0.26000000000000001,1.0975228548049927,
0.26250000000000001,1.0447057485580444,
0.26500000000000001,0.95707798004150391,
0.26750000000000002,0.84036111831665039,
0.27000000000000002,0.55290842056274414,
0.27250000000000002,0.40140491724014282,
0.27500000000000002,0.25740206241607666,
0.27750000000000002,0.12900154292583466,
0.28000000000000003,-0.059428215026855469,
0.28249999999999997,-0.11500994861125946,
0.28499999999999998,-0.14597415924072266,
0.28749999999999998,-0.15580675005912781,
0.28999999999999998,-0.13145367801189423,
0.29249999999999998,-0.10772566497325897,
0.29499999999999998,-0.082507133483886719,
0.29749999999999999,-0.059163771569728851,
0.29999999999999999,-0.025146406143903732,
0.30249999999999999,-0.015145540237426758,
0.30499999999999999,-0.0087747974321246147,
0.3075,-0.004784067627042532,
0.31,0.0012020270805805922,
0.3125,0.0049763917922973633,
0.315,0.0097845001146197319,
0.3175,0.015482108108699322,
0.32000000000000001,0.027742784470319748,
0.32250000000000001,0.033272109925746918,
0.32500000000000001,0.037863850593566895,
0.32750000000000001,0.04137377068400383,
0.33000000000000002,0.045484703034162521,
0.33250000000000002,0.046638648957014084,
0.33500000000000002,0.047624312341213226,
0.33750000000000002,0.048730175942182541,
0.34000000000000002,0.051735244691371918,
0.34250000000000003,0.053562324494123459,
0.34499999999999997,0.055413447320461273,
0.34749999999999998,0.057096283882856369,
0.34999999999999998,0.059380136430263519,
0.35249999999999998,0.059860944747924805,
0.35499999999999998,0.060029231011867523,
0.35749999999999998,0.060029231011867523,
0.35999999999999999,0.060245595872402191,
0.36249999999999999,0.060774486511945724,
0.36499999999999999,0.061688028275966644,
0.36749999999999999,0.062986217439174652,
0.37,0.066327854990959167,
0.3725,0.068130895495414734,
0.375,0.069837771356105804,
0.3775,0.071328282356262207,
0.38,0.073588095605373383,
0.38250000000000001,0.074381433427333832,
0.38500000000000001,0.074982449412345886,
0.38750000000000001,0.075535379350185394,
0.39000000000000001,0.076881647109985352,
0.39250000000000002,0.077891349792480469,
0.39500000000000002,0.079261660575866699,
0.39750000000000002,0.081112787127494812,
0.40000000000000002,0.086569987237453461,
0.40250000000000002,0.090248189866542816,
0.40500000000000003,0.094599530100822449,
0.40749999999999997,0.099551878869533539,
0.40999999999999998,0.11101921647787094,
0.41249999999999998,0.11729379743337631,
0.41499999999999998,0.12380878627300262,
0.41749999999999998,0.13037185370922089,
0.41999999999999998,0.14335374534130096,
0.42249999999999999,0.14958024024963379,
0.42499999999999999,0.15559038519859314,
0.42749999999999999,0.16136011481285095,
0.42999999999999999,0.17253896594047546,
0.4325,0.17811636626720428,
0.435,0.18393418192863464,
0.4375,0.19008855521678925,
0.44,0.20395994186401367,
0.4425,0.21174907684326172,
0.44500000000000001,0.2199709415435791,
0.44750000000000001,0.22848129272460938,
0.45000000000000001,0.24492502212524414,
0.45250000000000001,0.25211316347122192,
0.45500000000000002,0.25812327861785889,
0.45750000000000002,0.26269099116325378,
0.46000000000000002,0.26709040999412537,
0.46250000000000002,0.26713848114013672,
0.46500000000000002,0.26608070731163025,
0.46750000000000003,0.26430171728134155,
0.46999999999999997,0.25997442007064819,
0.47249999999999998,0.25785884261131287,
0.47499999999999998,0.25583943724632263,
0.47749999999999998,0.25367578864097595,
0.47999999999999998,0.24759352207183838,
0.48249999999999998,0.24283349514007568,
0.48499999999999999,0.23646275699138641,
0.48749999999999999,0.22824089229106903,
0.48999999999999999,0.20641207695007324,
0.49249999999999999,0.19326190650463104,
0.495,0.17915010452270508,
0.4975,0.16455750167369843,
0.5,0.13542036712169647,
0.50249999999999995,0.12138068675994873,
0.505,0.10782182216644287,
0.50749999999999995,0.094671651721000671,
0.51000000000000001,0.068924233317375183,
0.51249999999999996,0.056086581200361252,
0.51500000000000001,0.043224893510341644,
0.51749999999999996,0.030411284416913986,
0.52000000000000002,0.0056976079940795898,
0.52249999999999996,-0.0056495270691812038,
0.52500000000000002,-0.015962919220328331,
0.52749999999999997,-0.025026202201843262,
0.53000000000000003,-0.039162039756774902,
0.53249999999999997,-0.044378839433193207,
0.53500000000000003,-0.048561893403530121,
0.53749999999999998,-0.05197564885020256,
0.54000000000000004,-0.057360731065273285,
0.54249999999999998,-0.059644579887390137,
0.54500000000000004,-0.061784189194440842,
0.54749999999999999,-0.063755512237548828,
0.55000000000000004,-0.067217350006103516,
0.55249999999999999,-0.068635746836662292,
0.55500000000000005,-0.069861814379692078,
0.5575,-0.070967674255371094,
0.56000000000000005,-0.073203444480895996,
0.5625,-0.07454971969127655,
0.56499999999999995,-0.076184473931789398,
0.5675,-0.07813175767660141,
0.56999999999999995,-0.082723498344421387,
0.57250000000000001,-0.085127554833889008,
0.57499999999999996,-0.087411403656005859,
0.57750000000000001,-0.089406773447990417,
0.57999999999999996,-0.091906987130641937,
0.58250000000000002,-0.092315673828125,
0.58499999999999996,-0.092147395014762878,
0.58750000000000002,-0.091474257409572601,
0.58999999999999997,-0.08907020092010498,
0.59250000000000003,-0.087603732943534851,
0.59499999999999997,-0.086161300539970398,
0.59750000000000003,-0.084839068353176117,
0.59999999999999998,-0.083011984825134277,
0.60250000000000004,-0.082627341151237488,
0.60499999999999998,-0.082651376724243164,
0.60750000000000004,-0.0830841064453125,
0.60999999999999999,-0.084959268569946289,
0.61250000000000004,-0.086257457733154297,
0.61499999999999999,-0.087627768516540527,
0.61750000000000005,-0.088974043726921082,
0.62,-0.090969406068325043,
0.62250000000000005,-0.091450214385986328,
0.625,-0.091546379029750824,
0.62749999999999995,-0.091257892549037933,
0.63,-0.089791417121887207,
0.63249999999999995,-0.088805757462978363,
0.63500000000000001,-0.087844133377075195,
0.63749999999999996,-0.086954638361930847,
0.64000000000000001,-0.085632406175136566,
0.64249999999999996,-0.085175633430480957,
0.64500000000000002,-0.084815025329589844,
0.64749999999999996,-0.08445441722869873,
0.65000000000000002,-0.083540879189968109,
0.65249999999999997,-0.082915827631950378,
0.65500000000000003,-0.082194611430168152,
0.65749999999999997,-0.081425309181213379,
0.66000000000000003,-0.079910755157470703,
0.66249999999999998,-0.079237625002861023,
0.66500000000000004,-0.078684687614440918,
0.66749999999999998,-0.078227922320365906,
0.67000000000000004,-0.077410541474819183,
0.67249999999999999,-0.076929733157157898,
0.67500000000000004,-0.076400838792324066,
0.67749999999999999,-0.075823865830898285,
0.68000000000000005,-0.074621841311454773,
0.6825,-0.074165068566799164,
0.68500000000000005,-0.073900625109672546,
0.6875,-0.073876582086086273,
0.68999999999999995,-0.0745977982878685,
0.6925,-0.07522284984588623,
0.69499999999999995,-0.075847908854484558,
0.69750000000000001,-0.076376795768737793,
0.69999999999999996,-0.076617203652858734,
0.70250000000000001,-0.076208516955375671,
0.70499999999999996,-0.075463257730007172,
0.70750000000000002,-0.074429512023925781,
0.70999999999999996,-0.071977376937866211,
0.71250000000000002,-0.070823431015014648,
0.71499999999999997,-0.069861814379692078,
0.71750000000000003,-0.069140598177909851,
0.71999999999999997,-0.068587660789489746,
0.72250000000000003,-0.068635746836662292,
0.72499999999999998,-0.06885211169719696,
0.72750000000000004,-0.069092512130737305,
0.72999999999999998,-0.069429084658622742,
0.73250000000000004,-0.069405041635036469,
0.73499999999999999,-0.069212719798088074,
0.73750000000000004,-0.068804025650024414,
0.73999999999999999,-0.067553922533988953,
0.74250000000000005,-0.06678462028503418,
0.745,-0.06599128246307373,
0.74750000000000005,-0.065221987664699554,
0.75,-0.064140163362026215,
0.75249999999999995,-0.063923798501491547,
0.755,-0.063971877098083496,
0.75749999999999995,-0.064308449625968933,
0.76000000000000001,-0.065558552742004395,
0.76249999999999996,-0.066375933587551117,
0.76500000000000001,-0.067169271409511566,
0.76749999999999996,-0.067842409014701843,
0.77000000000000002,-0.068611703813076019,
0.77249999999999996,-0.068659782409667969,
0.77500000000000002,-0.068491503596305847,
0.77749999999999997,-0.068227052688598633,
0.78000000000000003,-0.067650079727172852,
0.78249999999999997,-0.067505836486816406,
0.78500000000000003,-0.067505836486816406,
0.78749999999999998,-0.067698165774345398,
0.79000000000000004,-0.068419381976127625,
0.79249999999999998,-0.06885211169719696,
0.79500000000000004,-0.069188676774501801,
0.79749999999999999,-0.069429084658622742,
0.80000000000000004,-0.069453120231628418,
0.80249999999999999,-0.069284841418266296,
0.80500000000000005,-0.069044433534145355,
0.8075,-0.068804025650024414,
0.81000000000000005,-0.068491503596305847,
0.8125,-0.068467460572719574,
0.81499999999999995,-0.068467460572719574,
0.8175,-0.068467460572719574,
0.81999999999999995,-0.068106852471828461,
0.82250000000000001,-0.067602001130580902,
0.82499999999999996,-0.066832706332206726,
0.82750000000000001,-0.065774917602539062,
0.82999999999999996,-0.063010260462760925,
0.83250000000000002,-0.061447620391845703,
0.83499999999999996,-0.059957109391689301,
0.83750000000000002,-0.058562755584716797,
0.83999999999999997,-0.056519310921430588,
0.84250000000000003,-0.055894255638122559,
0.84499999999999997,-0.055557690560817719,
0.84750000000000003,-0.055437486618757248,
0.84999999999999998,-0.055677890777587891,
0.85250000000000004,-0.055966377258300781,
0.85499999999999998,-0.056326985359191895,
0.85750000000000004,-0.05675971508026123,
0.85999999999999999,-0.057961743324995041,
0.86250000000000004,-0.058779120445251465,
0.86499999999999999,-0.059692662209272385,
0.86750000000000005,-0.060726404190063477,
0.87,-0.062601566314697266,
0.87250000000000005,-0.063154503703117371,
0.875,-0.06320258229970932,
0.87749999999999995,-0.062505409121513367,
0.88,-0.058202147483825684,
0.88249999999999995,-0.054427783936262131,
0.88500000000000001,-0.049571596086025238,
0.88749999999999996,-0.043777823448181152,
0.89000000000000001,-0.030435323715209961,
0.89249999999999996,-0.023583769798278809,
0.89500000000000002,-0.017188986763358116,
0.89749999999999996,-0.011611580848693848,
0.90000000000000002,-0.0044234595261514187,
0.90249999999999997,-0.0032935540657490492,
0.90500000000000003,-0.0039426488801836967,
0.90749999999999997,-0.0062986216507852077,
0.91000000000000003,-0.015506148338317871,
0.91249999999999998,-0.021804770454764366,
0.91500000000000004,-0.028752487152814865,
0.91749999999999998,-0.036012731492519379,
0.92000000000000004,-0.050316851586103439,
0.92249999999999999,-0.056855879724025726,
0.92500000000000004,-0.062817931175231934,
0.92749999999999999,-0.068106852471828461,
0.93000000000000005,-0.076881647109985352,
0.9325,-0.080511771142482758,
0.93500000000000005,-0.083709165453910828,
0.9375,-0.086569987237453461,
0.93999999999999995,-0.091209813952445984,
0.9425,-0.092796489596366882,
0.94499999999999995,-0.093734070658683777,
0.94750000000000001,-0.093782149255275726,
0.94999999999999996,-0.090801119804382324,
0.95250000000000001,-0.087820097804069519,
0.95499999999999996,-0.08411785215139389,
0.95750000000000002,-0.080271363258361816,
0.95999999999999996,-0.075174771249294281,
0.96250000000000002,-0.075895987451076508,
0.96499999999999997,-0.080175206065177917,
0.96750000000000003,-0.088853836059570312,
0.96999999999999997,-0.12130856513977051,
0.97250000000000003,-0.14479617774486542,
0.97499999999999998,-0.17191390693187714,
0.97750000000000004,-0.20095488429069519,
0.97999999999999998,-0.25478166341781616,
0.98250000000000004,-0.27334094047546387,
0.98499999999999999,-0.28168302774429321,
0.98750000000000004,-0.27634602785110474,
0.98999999999999999,-0.21261453628540039,
0.99250000000000005,-0.15015721321105957,
0.995,-0.066520176827907562,
0.99750000000000005,0.037046473473310471,
1,0.29028952121734619,18.575851440429688
1.0024999999999999,0.42897939682006836,
1.0049999999999999,0.56603455543518066,
1.0075000000000001,0.69311285018920898,
1.01,0.88392257690429688,
1.0125,0.93332588672637939,
1.0149999999999999,0.9456106424331665,
1.0175000000000001,0.91906988620758057,
1.02,0.75744533538818359,
1.0225,0.63325190544128418,
1.0249999999999999,0.49112421274185181,
1.0275000000000001,0.34077465534210205,
1.03,0.054403744637966156,
1.0325,-0.065125823020935059,
1.0349999999999999,-0.16131202876567841,
1.0375000000000001,-0.23151040077209473,
1.04,-0.29629966616630554,
1.0425,-0.29709300398826599,
1.0449999999999999,-0.28317353129386902,
1.0475000000000001,-0.25990229845046997,
1.05,-0.204585000872612,
1.0525,-0.17982324957847595,
1.0549999999999999,-0.15982151031494141,
1.0575000000000001,-0.14518082141876221,
1.0600000000000001,-0.13005933165550232,
1.0625,-0.12717446684837341,
1.0649999999999999,-0.12563586235046387,
1.0674999999999999,-0.12421747297048569,
1.0700000000000001,-0.11890451610088348,
1.0725,-0.11448105424642563,
1.075,-0.1090959757566452,
1.0774999999999999,-0.10315795987844467,
1.0800000000000001,-0.091378092765808105,
1.0825,-0.08628150075674057,
1.085,-0.08200228214263916,
1.0874999999999999,-0.078612565994262695,
1.0900000000000001,-0.074116989970207214,
1.0925,-0.072650514543056488,
1.095,-0.071424447000026703,
1.0974999999999999,-0.070294544100761414,
1.1000000000000001,-0.067698165774345398,
1.1025,-0.066087447106838226,
1.105,-0.06423632800579071,
1.1074999999999999,-0.062144797295331955,
1.1100000000000001,-0.05750497430562973,
1.1125,-0.055100917816162109,
1.115,-0.05276898667216301,
1.1174999999999999,-0.050557255744934082,
1.1200000000000001,-0.046855013817548752,
1.1225000000000001,-0.045364499092102051,
1.125,-0.044114392250776291,
1.1274999999999999,-0.042936407029628754,
1.1299999999999999,-0.040267907083034515,
1.1325000000000001,-0.038392744958400726,
1.135,-0.035940609872341156,
1.1375,-0.032791297882795334,
1.1399999999999999,-0.02444922924041748,
1.1425000000000001,-0.019472837448120117,
1.145,-0.014280080795288086,
1.1475,-0.0091113653033971786,
1.1499999999999999,4.8081081331474707e-05,
1.1525000000000001,0.0037262837868183851,
1.155,0.0066832704469561577,
1.1575,0.009039243683218956,
1.1599999999999999,0.012693405151367188,
1.1625000000000001,0.014544527046382427,
1.165,0.016780298203229904,
1.1675,0.019617080688476562,
1.1699999999999999,0.027742784470319748,
1.1725000000000001,0.033079784363508224,
1.175,0.039162039756774902,
1.1775,0.045869350433349609,
1.1799999999999999,0.060558121651411057,
1.1825000000000001,0.068227052688598633,
1.1850000000000001,0.075944066047668457,
1.1875,0.083613000810146332,
1.1899999999999999,0.098542176187038422,
1.1924999999999999,0.10570625960826874,
1.1950000000000001,0.11260589212179184,
1.1975,0.11924108117818832,
1.2,0.13169407844543457,
1.2024999999999999,0.13746380805969238,
1.2050000000000001,0.1429450511932373,
1.2075,0.14811377227306366,
1.21,0.15739342570304871,
1.2124999999999999,0.16138415038585663,
1.2150000000000001,0.16484598815441132,
1.2175,0.16768276691436768,
1.22,0.17114460468292236,
1.2224999999999999,0.17167350649833679,
1.2250000000000001,0.17136096954345703,
1.2275,0.17025510966777802,
1.23,0.16592781245708466,
1.2324999999999999,0.16282658278942108,
1.2350000000000001,0.15912434458732605,
1.2375,0.15479704737663269,
1.24,0.14376243948936462,
1.2424999999999999,0.1366945207118988,
1.2450000000000001,0.12835244834423065,
1.2475000000000001,0.11856794357299805,
1.25,0.094503365457057953,
1.2524999999999999,0.080439649522304535,
1.2549999999999999,0.06531815230846405,
1.2575000000000001,0.049499474465847015,
1.26,0.017573636025190353,
1.2625,0.002259810920804739,
1.2649999999999999,-0.01216451358050108,
1.2675000000000001,-0.025458931922912598,
1.27,-0.048369567841291428,
1.2725,-0.058057904243469238,
1.2749999999999999,-0.066712498664855957,
1.2775000000000001,-0.074477598071098328,
1.28,-0.088036462664604187,
1.2825,-0.094022557139396667,
1.2849999999999999,-0.099575921893119812,
1.2875000000000001,-0.1047205924987793,
1.29,-0.11378388106822968,
1.2925,-0.11775057017803192,
1.2949999999999999,-0.12133260816335678,
1.2975000000000001,-0.12460212409496307,
1.3,-0.13027569651603699,
1.3025,-0.13277590274810791,
1.3049999999999999,-0.13510784506797791,
1.3075000000000001,-0.13727149367332458,
1.3100000000000001,-0.14102181792259216,
1.3125,-0.14256040751934052,
1.3149999999999999,-0.1438826322555542,
1.3174999999999999,-0.14491638541221619,
1.3200000000000001,-0.14628669619560242,
1.3225,-0.14667133986949921,
1.325,-0.14691174030303955,
1.3274999999999999,-0.14708003401756287,
1.3300000000000001,-0.14741659164428711,
1.3325,-0.14765700697898865,
1.335,-0.14794549345970154,
1.3374999999999999,-0.14830610156059265,
1.3400000000000001,-0.14917156100273132,
1.3425,-0.14960429072380066,
1.345,-0.15001296997070312,
1.3474999999999999,-0.15037357807159424,
1.3500000000000001,-0.15095055103302002,
1.3525,-0.15114288032054901,
1.355,-0.15126308798789978,
1.3574999999999999,-0.15128712356090546,
1.3600000000000001,-0.15107075870037079,
1.3625,-0.1507822722196579,
1.365,-0.15039762854576111,
1.3674999999999999,-0.14989277720451355,
1.3700000000000001,-0.14849841594696045,
1.3725000000000001,-0.14768104255199432,
1.375,-0.14674346148967743,
1.3774999999999999,-0.14578184485435486,
1.3799999999999999,-0.1437864750623703,
1.3825000000000001,-0.14280080795288086,
1.385,-0.14183919131755829,
1.3875,-0.14092564582824707,
1.3899999999999999,-0.13933897018432617,
1.3925000000000001,-0.13866584002971649,
1.395,-0.13808886706829071,
1.3975,-0.13758401572704315,
1.3999999999999999,-0.1366945207118988,
1.4025000000000001,-0.1362377405166626,
1.405,-0.13573288917541504,
1.4075,-0.13510784506797791,
1.4099999999999999,-0.13335287570953369,
1.4125000000000001,-0.13212680816650391,
1.415,-0.13068437576293945,
1.4175,-0.12902557849884033,
1.4199999999999999,-0.12525121867656708,
1.4225000000000001,-0.12325584888458252,
1.425,-0.12133260816335678,
1.4275,-0.11955361068248749,
1.4299999999999999,-0.11686106771230698,
1.4325000000000001,-0.11606772989034653,
1.4350000000000001,-0.11573116481304169,
1.4375,-0.11585136502981186,
1.4399999999999999,-0.11719763278961182,
1.4424999999999999,-0.11825542151927948,
1.4450000000000001,-0.11938532441854477,
1.4475,-0.12044310569763184,
1.45,-0.12183745950460434,
1.4524999999999999,-0.12195765972137451,
1.4550000000000001,-0.12166917324066162,
1.4575,-0.12094795703887939,
1.46,-0.11871218681335449,
1.4624999999999999,-0.11743804067373276,
1.4650000000000001,-0.11626005172729492,
1.4675,-0.11532247066497803,
1.47,-0.11445701122283936,
1.4724999999999999,-0.1146012544631958,
1.4750000000000001,-0.11513014882802963,
1.4775,-0.11594752967357635,
1.48,-0.11815925687551498,
1.4824999999999999,-0.1193612813949585,
1.4850000000000001,-0.12058734893798828,
1.4875,-0.12169321626424789,
1.49,-0.12347221374511719,
1.4924999999999999,-0.12404918670654297,
1.4950000000000001,-0.12438575923442841,
1.4975000000000001,-0.12443383783102036,
1.5,-0.12376070022583008,
1.5024999999999999,-0.1230875700712204,
1.5049999999999999,-0.12229423224925995,
1.5075000000000001,-0.12145280838012695,
1.51,-0.1199142187833786,
1.5125,-0.1193612813949585,
1.5149999999999999,-0.11895259469747543,
1.5175000000000001,-0.11871218681335449,
1.52,-0.11856794357299805,
1.5225,-0.11856794357299805,
1.5249999999999999,-0.11856794357299805,
1.5275000000000001,-0.11854390799999237,
1.53,-0.11861602962017059,
1.5325,-0.11876027286052704,
1.5349999999999999,-0.11904875934123993,
1.5375000000000001,-0.11945744603872299,
1.54,-0.1206594705581665,
1.5425,-0.12123644351959229,
1.5449999999999999,-0.12171725928783417,
1.5475000000000001,-0.12190958112478256,
1.55,-0.12111624330282211,
1.5525,-0.12005846202373505,
1.5549999999999999,-0.11854390799999237,
1.5575000000000001,-0.11671682447195053,
1.5600000000000001,-0.11262993514537811,
1.5625,-0.11073072999715805,
1.5649999999999999,-0.10914405435323715,
1.5674999999999999,-0.10796606540679932,
1.5700000000000001,-0.10714869201183319,
1.5725,-0.10748525708913803,
1.575,-0.10820647329092026,
1.5774999999999999,-0.10916809737682343,
1.5800000000000001,-0.11106729507446289,
1.5825,-0.111620232462883,
1.585,-0.11171638965606689,
1.5874999999999999,-0.11113941669464111,
1.5900000000000001,-0.10762950032949448,
1.5925,-0.10460039228200912,
1.595,-0.10075390338897705,
1.5974999999999999,-0.09089728444814682,
1.6000000000000001,-0.085271798074245453,
1.6025,-0.079526111483573914,
1.605,-0.073924660682678223,
1.6074999999999999,-0.06885211169719696,
1.6100000000000001,-0.061471663415431976,
1.6125,-0.059788823127746582,
1.615,-0.059692662209272385,
1.6174999999999999,-0.061279337853193283,
1.6200000000000001,-0.06923675537109375,
1.6225000000000001,-0.075246892869472504,
1.625,-0.082194611430168152,
1.6274999999999999,-0.089719295501708984,
1.6299999999999999,-0.10493695735931396,
1.6325000000000001,-0.11195679754018784,
1.635,-0.11823137849569321,
1.6375,-0.12364050000905991,
1.6399999999999999,-0.13167004287242889,
1.6425000000000001,-0.13448278605937958,
1.645,-0.13664643466472626,
1.6475,-0.13835331797599792,
1.6499999999999999,-0.14073333144187927,
1.6525000000000001,-0.14147858321666718,
1.655,-0.14183919131755829,
1.6575,-0.14169494807720184,
1.6599999999999999,-0.13919472694396973,
1.6625000000000001,-0.13671855628490448,
1.665,-0.13356924057006836,
1.6675,-0.13005933165550232,
1.6699999999999999,-0.12443383783102036,
1.6725000000000001,-0.12397706508636475,
1.675,-0.12633304297924042,
1.6775,-0.13243934512138367,
1.6799999999999999,-0.15828292071819305,
1.6825000000000001,-0.17830869555473328,
1.6850000000000001,-0.20237326622009277,
1.6875,-0.25706550478935242,
1.6899999999999999,-0.28351008892059326,
1.6924999999999999,-0.30572354793548584,
1.6950000000000001,-0.32060465216636658,
1.6975,-0.32498002052307129,
1.7,-0.29033762216567993,
1.7024999999999999,-0.24658381938934326,
1.7050000000000001,-0.18345336616039276,
1.7075,-0.10106643289327621,
1.71,0.11397620290517807,
1.7124999999999999,0.23898701369762421,
1.7150000000000001,0.36815685033798218,
1.7175,0.49432158470153809,
1.72,0.70671975612640381,
1.7224999999999999,0.77807211875915527,
1.7250000000000001,0.81807553768157959,
1.7275,0.82307600975036621,
1.73,0.72614455223083496,
1.7324999999999999,0.63003045320510864,
1.7350000000000001,0.51018834114074707,
1.7375,0.37491223216056824,
1.74,0.095056295394897461,
1.7424999999999999,-0.032046042382717133,
1.7450000000000001,-0.14114201068878174,
1.7475000000000001,-0.22778412699699402,
1.75,-0.32796105742454529,
1.7524999999999999,-0.34421247243881226,
1.7549999999999999,-0.34257769584655762,
1.7575000000000001,-0.3278648853302002,
1.76,-0.27884623408317566,
1.7625,-0.25293052196502686,
1.7649999999999999,-0.23006796836853027,
1.7675000000000001,-0.21179716289043427,
1.77,-0.18992027640342712,
1.7725,-0.18491983413696289,
1.7749999999999999,-0.18222729861736298,
1.7775000000000001,-0.1806165874004364,
1.78,-0.17648160457611084,
1.7825,-0.17282745242118835,
1.7849999999999999,-0.16799530386924744,
1.7875000000000001,-0.16217748820781708,
1.79,-0.14950811862945557,
1.7925,-0.14357011020183563,
1.7949999999999999,-0.13842543959617615,
1.7975000000000001,-0.13121327757835388,
1.8,-0.12912175059318542,
1.8025,-0.12777547538280487,
1.8049999999999999,-0.12693405151367188,
1.8075000000000001,-0.12623688578605652,
1.8100000000000001,-0.12421747297048569,
1.8125,-0.12248655408620834,
1.8149999999999999,-0.12013058364391327,
1.8174999999999999,-0.11719763278961182,
1.8200000000000001,-0.1100335568189621,
1.8225,-0.10618706792593002,
1.825,-0.10246078670024872,
1.8274999999999999,-0.09904702752828598,
1.8300000000000001,-0.093661949038505554,
1.8325,-0.091762743890285492,
1.835,-0.090344354510307312,
1.8374999999999999,-0.088348984718322754,
1.8400000000000001,-0.087411403656005859,
1.8425,-0.086305543780326843,
1.845,-0.08486311137676239,
1.8474999999999999,-0.08058389276266098,
1.8500000000000001,-0.077674984931945801,
1.8525,-0.074333354830741882,
1.855,-0.07060706615447998,
1.8574999999999999,-0.062529444694519043,
1.8600000000000001,-0.058370433747768402,
1.8625,-0.054283540695905685,
1.865,-0.050316851586103439,
1.8674999999999999,-0.046470366418361664,
1.8700000000000001,-0.039138000458478928,
1.8725000000000001,-0.035483837127685547,
1.875,-0.031709473580121994,
1.8774999999999999,-0.027718743309378624,
1.8799999999999999,-0.018655460327863693,
1.8825000000000001,-0.013462702743709087,
1.885,-0.0078372163698077202,
1.8875,0.0046879053115844727,
1.8899999999999999,0.011419257149100304,
1.8925000000000001,0.018318891525268555,
1.895,0.025314688682556152,
1.8975,0.032286446541547775,
1.8999999999999999,0.045965515077114105,
1.9025000000000001,0.052624743431806564,
1.905,0.059115689247846603,
1.9075,0.071640811860561371,
1.9099999999999999,0.077650949358940125,
1.9125000000000001,0.083396635949611664,
1.915,0.088877879083156586,
1.9175,0.09871046245098114,
1.9199999999999999,0.10291755199432373,
1.9225000000000001,0.10659575462341309,
1.925,0.10964890569448471,
1.9275,0.11207699775695801,
1.9299999999999999,0.11503398418426514,
1.9325000000000001,0.1155388355255127,
1.9350000000000001,0.1153465136885643,
1.9375,0.11284630000591278,
1.9399999999999999,0.11037012189626694,
1.9424999999999999,0.10698040574789047,
1.9450000000000001,0.10255694389343262,
1.9475,0.090296268463134766,
1.95,0.082362890243530273,
1.9524999999999999,0.07317940890789032,
1.9550000000000001,0.062817931175231934,
1.9575,0.038945674896240234,
1.96,0.025747418403625488,
1.9624999999999999,0.011948148719966412,
1.9650000000000001,-0.0021876893006265163,
1.9675,-0.016515851020812988,
1.97,-0.044811569154262543,
1.9724999999999999,-0.058442555367946625,
1.9750000000000001,-0.071544647216796875,
1.9775,-0.09584963321685791,
1.98,-0.10690828412771225,
1.9824999999999999,-0.11719763278961182,
1.9850000000000001,-0.12674173712730408,
1.9875,-0.14359414577484131,
1.99,-0.15095055103302002,
1.9924999999999999,-0.15760979056358337,
1.9950000000000001,-0.16361992061138153,
1.9975000000000001,-0.17376503348350525,
2,-0.17797212302684784,0
2.0024999999999999,-0.18162629008293152,
2.0049999999999999,-0.18479964137077332,
2.0074999999999998,-0.18751621246337891,
2.0099999999999998,-0.19184350967407227,
2.0125000000000002,-0.19357442855834961,
2.0150000000000001,-0.19511303305625916,
2.0175000000000001,-0.19775748252868652,
2.02,-0.19891142845153809,
2.0225,-0.19996921718120575,
2.0249999999999999,-0.20090679824352264,
2.0274999999999999,-0.20167610049247742,
2.0299999999999998,-0.20268580317497253,
2.0325000000000002,-0.20287811756134033,
2.0350000000000001,-0.20292620360851288,
2.0375000000000001,-0.20283004641532898,
2.04,-0.20292620360851288,
2.0425,-0.20326277613639832,
2.0449999999999999,-0.20391187071800232,
2.0474999999999999,-0.20641207695007324,
2.0499999999999998,-0.20821511745452881,
2.0525000000000002,-0.21021048724651337,
2.0550000000000002,-0.21225392818450928,
2.0575000000000001,-0.21581193804740906,
2.0600000000000001,-0.2169899195432663,
2.0625,-0.21759092807769775,
2.0649999999999999,-0.21759092807769775,
2.0674999999999999,-0.21706204116344452,
2.0699999999999998,-0.21482627093791962,
2.0724999999999998,-0.21343192458152771,
2.0750000000000002,-0.21208564937114716,
2.0775000000000001,-0.21011433005332947,
2.0800000000000001,-0.20958542823791504,
2.0825,-0.20939311385154724,
2.085,-0.20946523547172546,
2.0874999999999999,-0.20968160033226013,
2.0899999999999999,-0.21011433005332947,
2.0924999999999998,-0.21013836562633514,
2.0950000000000002,-0.20992200076580048,
2.0975000000000001,-0.20941714942455292,
2.1000000000000001,-0.2076621949672699,
2.1025,-0.20648419857025146,
2.105,-0.205234095454216,
2.1074999999999999,-0.20398399233818054,
2.1099999999999999,-0.20179629325866699,
2.1124999999999998,-0.20095488429069519,
2.1150000000000002,-0.20035386085510254,
2.1175000000000002,-0.19994518160820007,
2.1200000000000001,-0.19965669512748718,
2.1225000000000001,-0.19965669512748718,
2.125,-0.19968073070049286,
2.1274999999999999,-0.19951245188713074,
2.1299999999999999,-0.19922396540641785,
2.1324999999999998,-0.19876718521118164,
2.1349999999999998,-0.19809405505657196,
2.1375000000000002,-0.1961948573589325,
2.1400000000000001,-0.19499282538890839,
2.1425000000000001,-0.19369463622570038,
2.145,-0.19230028986930847,
2.1475,-0.18951158225536346,
2.1499999999999999,-0.18818935751914978,
2.1524999999999999,-0.18696328997612,
2.1549999999999998,-0.18585741519927979,
2.1575000000000002,-0.18417458236217499,
2.1600000000000001,-0.18357357382774353,
2.1625000000000001,-0.18316487967967987,
2.165,-0.18292447924613953,
2.1675,-0.18280427157878876,
2.1699999999999999,-0.1829485148191452,
2.1724999999999999,-0.18318891525268555,
2.1749999999999998,-0.18347740173339844,
2.1775000000000002,-0.18436691164970398,
2.1800000000000002,-0.18494388461112976,
2.1825000000000001,-0.18561701476573944,
2.1850000000000001,-0.18641035258769989,
2.1875,-0.18725177645683289,
2.1899999999999999,-0.18907885253429413,
2.1924999999999999,-0.1899443119764328,
2.1949999999999998,-0.1906895637512207,
2.1974999999999998,-0.19167523086071014,
2.2000000000000002,-0.19181947410106659,
2.2025000000000001,-0.19172331690788269,
2.2050000000000001,-0.19145886600017548,
2.2075,-0.19066552817821503,
2.21,-0.19030492007732391,
2.2124999999999999,-0.19008855521678925,
2.2149999999999999,-0.19008855521678925,
2.2174999999999998,-0.19035300612449646,
2.2200000000000002,-0.1916271448135376,
2.2225000000000001,-0.19256472587585449,
2.2250000000000001,-0.19357442855834961,
2.2275,-0.19456009566783905,
2.23,-0.19612273573875427,
2.2324999999999999,-0.19653141498565674,
2.2349999999999999,-0.19667565822601318,
2.2374999999999998,-0.1960986852645874,
2.2400000000000002,-0.19552171230316162,
2.2425000000000002,-0.19484858214855194,
2.2450000000000001,-0.19417545199394226,
2.2475000000000001,-0.19359847903251648,
2.25,-0.19299745559692383,
2.2524999999999999,-0.19304554164409637,
2.2549999999999999,-0.19333402812480927,
2.2574999999999998,-0.19379079341888428,
2.2599999999999998,-0.19501686096191406,
2.2625000000000002,-0.19559383392333984,
2.2650000000000001,-0.19607464969158173,
2.2675000000000001,-0.19650737941265106,
2.27,-0.19645929336547852,
2.2725,-0.19624292850494385,
2.2749999999999999,-0.1959063708782196,
2.2774999999999999,-0.19511303305625916,
2.2799999999999998,-0.19475242495536804,
2.2825000000000002,-0.19446393847465515,
2.2850000000000001,-0.19422352313995361,
2.2875000000000001,-0.19400715827941895,
2.29,-0.19357442855834961,
2.2925,-0.19326190650463104,
2.2949999999999999,-0.19290129840373993,
2.2974999999999999,-0.19246856868267059,
2.2999999999999998,-0.19155502319335938,
2.3025000000000002,-0.19124250113964081,
2.3050000000000002,-0.19105017185211182,
2.3075000000000001,-0.19129058718681335,
2.3100000000000001,-0.19167523086071014,
2.3125,-0.19215604662895203,
2.3149999999999999,-0.19261281192302704,
2.3174999999999999,-0.19297342002391815,
2.3199999999999998,-0.19261281192302704,
2.3224999999999998,-0.19179543852806091,
2.3250000000000002,-0.19049724936485291,
2.3275000000000001,-0.18876633048057556,
2.3300000000000001,-0.18441498279571533,
2.3325,-0.18210709095001221,
2.335,-0.17989537119865417,
2.3374999999999999,-0.17640948295593262,
2.3399999999999999,-0.1753036230802536,
2.3424999999999998,-0.1746545284986496,
2.3450000000000002,-0.17446219921112061,
2.3475000000000001,-0.17523150146007538,
2.3500000000000001,-0.1760488748550415,
2.3525,-0.17701050639152527,
2.355,-0.17802020907402039,
2.3574999999999999,-0.17975112795829773,
2.3599999999999999,-0.18020789325237274,
2.3624999999999998,-0.18025597929954529,
2.3650000000000002,-0.17972707748413086,
2.3675000000000002,-0.17650565505027771,
2.3700000000000001,-0.17364482581615448,
2.3725000000000001,-0.16991853713989258,
2.375,-0.16535083949565887,
2.3774999999999999,-0.15429219603538513,
2.3799999999999999,-0.14828205108642578,
2.3824999999999998,-0.14239212870597839,
2.3849999999999998,-0.13698300719261169,
2.3875000000000002,-0.12907366454601288,
2.3900000000000001,-0.12722253799438477,
2.3925000000000001,-0.12705425918102264,
2.395,-0.12864093482494354,
2.3975,-0.13674259185791016,
2.3999999999999999,-0.14277677237987518,
2.4024999999999999,-0.14965236186981201,
2.4049999999999998,-0.15696069598197937,
2.4075000000000002,-0.17136096954345703,
2.4100000000000001,-0.17780384421348572,
2.4125000000000001,-0.18350145220756531,
2.415,-0.18840572237968445,
2.4175,-0.19612273573875427,
2.4199999999999999,-0.19922396540641785,
2.4224999999999999,-0.20206074416637421,
2.4249999999999998,-0.20470520853996277,
2.4275000000000002,-0.20948927104473114,
2.4300000000000002,-0.21134039759635925,
2.4325000000000001,-0.21249434351921082,
2.4350000000000001,-0.21271070837974548,
2.4375,-0.20939311385154724,
2.4399999999999999,-0.20588319003582001,
2.4424999999999999,-0.20153185725212097,
2.4449999999999998,-0.19691607356071472,
2.4474999999999998,-0.19064149260520935,
2.4500000000000002,-0.19109825789928436,
2.4525000000000001,-0.1953534334897995,
2.4550000000000001,-0.20420035719871521,
2.4575,-0.2369435727596283,
2.46,-0.26016673445701599,
2.4624999999999999,-0.28649112582206726,
2.4649999999999999,-0.31416177749633789,
2.4674999999999998,-0.36390167474746704,
2.4700000000000002,-0.38034540414810181,
2.4725000000000001,-0.38714885711669922,
2.4750000000000001,-0.38140317797660828,
2.4775,-0.32231152057647705,
2.48,-0.26550373435020447,
2.4824999999999999,-0.18975198268890381,
2.4849999999999999,-0.095873676240444183,
2.4874999999999998,0.13575693964958191,
2.4900000000000002,0.26461422443389893,
2.4925000000000002,0.39404851198196411,
2.4950000000000001,0.51667928695678711,
2.4975000000000001,0.71078264713287354,
2.5,0.76823949813842773,
2.5024999999999999,0.79225599765777588,
2.5049999999999999,0.78018766641616821,
2.5074999999999998,0.65065723657608032,
2.5099999999999998,0.54136896133422852,
2.5125000000000002,0.41164618730545044,
2.5150000000000001,0.27038395404815674,
2.5175000000000001,-0.0096402568742632866,
2.52,-0.13174216449260712,
2.5225,-0.23357789218425751,
2.5249999999999999,-0.31175774335861206,
2.5274999999999999,-0.39551496505737305,
2.5299999999999998,-0.40549179911613464,
2.5325000000000002,-0.39957782626152039,
2.5350000000000001,-0.38265329599380493,
2.5375000000000001,-0.3343798816204071,
2.54,-0.31048357486724854,
2.5425,-0.2899048924446106,
2.5449999999999999,-0.27365347743034363,
2.5474999999999999,-0.25379598140716553,
2.5499999999999998,-0.24857918918132782,
2.5525000000000002,-0.24504522979259491,
2.5550000000000002,-0.2422565221786499,
2.5575000000000001,-0.23629447817802429,
2.5600000000000001,-0.23259222507476807,
2.5625,-0.22850534319877625,
2.5649999999999999,-0.22422611713409424,
2.5674999999999999,-0.21629273891448975,
2.5699999999999998,-0.21299919486045837,
2.5724999999999998,-0.21021048724651337,
2.5750000000000002,-0.20787855982780457,
2.5775000000000001,-0.20403206348419189,
2.5800000000000001,-0.20220498740673065,
2.5825,-0.20030578970909119,
2.585,-0.19823829829692841,
2.5874999999999999,-0.1936706006526947,
2.5899999999999999,-0.19126653671264648,
2.5924999999999998,-0.18886248767375946,
2.5950000000000002,-0.18655459582805634,
2.5975000000000001,-0.18225133419036865,
2.6000000000000001,-0.18028001487255096,
2.6025,-0.17840485274791718,
2.605,-0.17657777667045593,
2.6074999999999999,-0.17294764518737793,
2.6099999999999999,-0.17104844748973846,
2.6124999999999998,-0.16905307769775391,
2.6150000000000002,-0.16688942909240723,
2.6175000000000002,-0.16193708777427673,
2.6200000000000001,-0.15910029411315918,
2.6225000000000001,-0.15597502887248993,
2.625,-0.15260934829711914,
2.6274999999999999,-0.14902731776237488,
2.6299999999999999,-0.14150261878967285,
2.6324999999999998,-0.13777634501457214,
2.6349999999999998,-0.13419429957866669,
2.6375000000000002,-0.12779951095581055,
2.6400000000000001,-0.12503485381603241,
2.6425000000000001,-0.12246251106262207,
2.645,-0.12003441900014877,
2.6475,-0.11496186256408691,
2.6499999999999999,-0.11205296218395233,
2.6524999999999999,-0.10871132463216782,
2.6549999999999998,-0.10484080016613007,
2.6575000000000002,-0.095489025115966797,
2.6600000000000001,-0.090007781982421875,
2.6625000000000001,-0.084045730531215668,
2.665,-0.077674984931945801,
2.6675,-0.063899755477905273,
2.6699999999999999,-0.056567393243312836,
2.6724999999999999,-0.048970580101013184,
2.6749999999999998,-0.041109323501586914,
2.6775000000000002,-0.024761756882071495,
2.6800000000000002,-0.016419690102338791,
2.6825000000000001,-0.0081497430801391602,
2.6850000000000001,-9.6162162662949413e-05,
2.6875,0.014592608436942101,
2.6899999999999999,0.02091526985168457,
2.6924999999999999,0.026420554146170616,
2.6949999999999998,0.031036337837576866,
2.6974999999999998,0.037887893617153168,
2.7000000000000002,0.040364068001508713,
2.7025000000000001,0.042383473366498947,
2.7050000000000001,0.044186513870954514,
2.7075,0.047480069100856781,
2.71,0.049066744744777679,
2.7124999999999999,0.050533216446638107,
2.7149999999999999,0.05168716236948967,
2.7174999999999998,0.052240096032619476,
2.7200000000000002,0.051062107086181641,
2.7225000000000001,0.048634015023708344,
2.7250000000000001,0.044691365212202072,
2.7275,0.031949877738952637,
2.73,0.023151040077209473,
2.7324999999999999,0.012909770011901855,
2.7349999999999999,0.0013943513622507453,
2.7374999999999998,-0.024377107620239258,
2.7400000000000002,-0.038104258477687836,
2.7425000000000002,-0.052023731172084808,
2.7450000000000001,-0.065943203866481781,
2.7475000000000001,-0.093157097697257996,
2.75,-0.10623514652252197,
2.7524999999999999,-0.11890451610088348,
2.7549999999999999,-0.13109306991100311,
2.7574999999999998,-0.15393158793449402,
2.7599999999999998,-0.16450941562652588,
2.7625000000000002,-0.17439007759094238,
2.7650000000000001,-0.18352548778057098,
2.7675000000000001,-0.19919991493225098,
2.77,-0.20561873912811279,
2.7725,-0.21107594668865204,
2.7749999999999999,-0.21561960875988007,
2.7774999999999999,-0.21934589743614197,
2.7799999999999998,-0.22489926218986511,
2.7825000000000002,-0.22711098194122314,
2.7850000000000001,-0.22915443778038025,
2.7875000000000001,-0.23338556289672852,
2.79,-0.23571750521659851,
2.7925,-0.23821771144866943,
2.7949999999999999,-0.2407660186290741,
2.7974999999999999,-0.24557411670684814,
2.7999999999999998,-0.24752140045166016,
2.8025000000000002,-0.24896383285522461,
2.8050000000000002,-0.2498052567243576,
2.8075000000000001,-0.24963697791099548,
2.8100000000000001,-0.24874746799468994,
2.8125,-0.24749736487865448,
2.8149999999999999,-0.2459828108549118,
2.8174999999999999,-0.243001788854599,
2.8199999999999998,-0.24175167083740234,
2.8224999999999998,-0.24081408977508545,
2.8250000000000002,-0.24023711681365967,
2.8275000000000001,-0.24006883800029755,
2.8300000000000001,-0.24040541052818298,
2.8325,-0.24093429744243622,
2.835,-0.24153530597686768,
2.8374999999999999,-0.24259309470653534,
2.8399999999999999,-0.24288158118724823,
2.8424999999999998,-0.24290561676025391,
2.8450000000000002,-0.24261713027954102,
2.8475000000000001,-0.24115066230297089,
2.8500000000000001,-0.24004480242729187,
2.8525,-0.23881873488426208,
2.855,-0.2375926673412323,
2.8574999999999999,-0.23562133312225342,
2.8599999999999999,-0.23509244620800018,
2.8624999999999998,-0.23494820296764374,
2.8650000000000002,-0.23518860340118408,
2.8675000000000002,-0.23651084303855896,
2.8700000000000001,-0.23742437362670898,
2.8725000000000001,-0.23828983306884766,
2.875,-0.23903509974479675,
2.8774999999999999,-0.23980438709259033,
2.8799999999999999,-0.23978035151958466,
2.8824999999999998,-0.23949186503887177,
2.8849999999999998,-0.23903509974479675,
2.8875000000000002,-0.2377849817276001,
2.8900000000000001,-0.23711185157299042,
2.8925000000000001,-0.23639063537120819,
2.895,-0.23566941916942596,
2.8975,-0.23398658633232117,
2.8999999999999999,-0.23297688364982605,
2.9024999999999999,-0.23189505934715271,
2.9049999999999998,-0.23071706295013428,
2.9075000000000002,-0.22956311702728271,
2.9100000000000001,-0.2276158332824707,
2.9125000000000001,-0.22703886032104492,
2.915,-0.22679845988750458,
2.9175,-0.22744755446910858,
2.9199999999999999,-0.22821685671806335,
2.9224999999999999,-0.22917847335338593,
2.9249999999999998,-0.23018817603588104,
2.9275000000000002,-0.23112575709819794,
2.9300000000000002,-0.2322797030210495,
2.9325000000000001,-0.23239991068840027,
2.9350000000000001,-0.23215949535369873,
2.9375,-0.2307891845703125,
2.9399999999999999,-0.22980353236198425,
2.9424999999999999,-0.22872170805931091,
2.9449999999999998,-0.22763988375663757,
2.9474999999999998,-0.22569260001182556,
2.9500000000000002,-0.22489926218986511,
2.9525000000000001,-0.22427420318126678,
2.9550000000000001,-0.2237933874130249,
2.9575,-0.22324046492576599,
2.96,-0.22309622168540955,
2.9624999999999999,-0.22302410006523132,
2.9649999999999999,-0.22300004959106445,
2.9674999999999998,-0.22302410006523132,
2.9700000000000002,-0.22307217121124268,
2.9725000000000001,-0.22312025725841522,
2.9750000000000001,-0.22316834330558777,
2.9775,-0.22321641445159912,
2.98,-0.22316834330558777,
2.9824999999999999,-0.223048135638237,
2.9849999999999999,-0.22278368473052979,
2.9874999999999998,-0.22235095500946045,
2.9900000000000002,-0.22086045145988464,
2.9925000000000002,-0.21982669830322266,
2.9950000000000001,-0.21860063076019287,
2.9975000000000001,-0.21598021686077118,
3,-0.21475414931774139,0
3.0024999999999999,-0.21376848220825195,
3.0049999999999999,-0.21309535205364227,
3.0074999999999998,-0.21302323043346405,
3.0099999999999998,-0.21364828944206238,
3.0125000000000002,-0.2146579921245575,
3.0150000000000001,-0.21590809524059296,
3.0175000000000001,-0.21855255961418152,
3.02,-0.21958629786968231,
3.0225,-0.22028347849845886,
3.0249999999999999,-0.22047579288482666,
3.0274999999999999,-0.21944205462932587,
3.0299999999999998,-0.21831214427947998,
3.0325000000000002,-0.21694183349609375,
3.0350000000000001,-0.21545132994651794,
3.0375000000000001,-0.21280686557292938,
3.04,-0.21184524893760681,
3.0425,-0.21119615435600281,
3.0449999999999999,-0.21085958182811737,
3.0474999999999999,-0.21078746020793915,
3.0499999999999998,-0.21088361740112305,
3.0525000000000002,-0.21093170344829559,
3.0550000000000002,-0.21083554625511169,
3.0575000000000001,-0.21006624400615692,
3.0600000000000001,-0.20936906337738037,
3.0625,-0.2085036039352417,
3.0649999999999999,-0.20754198729991913,
3.0674999999999999,-0.20557066798210144,
3.0699999999999998,-0.2046811580657959,
3.0724999999999998,-0.203935906291008,
3.0750000000000002,-0.20335893332958221,
3.0775000000000001,-0.20268580317497253,
3.0800000000000001,-0.20261368155479431,
3.0825,-0.20268580317497253,
3.085,-0.2029021680355072,
3.0874999999999999,-0.2036474198102951,
3.0899999999999999,-0.20415227115154266,
3.0924999999999998,-0.2046811580657959,
3.0950000000000002,-0.20521005988121033,
3.0975000000000001,-0.206075519323349,
3.1000000000000001,-0.20633995532989502,
3.1025,-0.20641207695007324,
3.105,-0.20629188418388367,
3.1074999999999999,-0.2053302526473999,
3.1099999999999999,-0.20456096529960632,
3.1124999999999998,-0.20359933376312256,
3.1150000000000002,-0.20256559550762177,
3.1175000000000002,-0.20049810409545898,
3.1200000000000001,-0.19963264465332031,
3.1225000000000001,-0.19898355007171631,
3.125,-0.19859890639781952,
3.1274999999999999,-0.19871911406517029,
3.1299999999999999,-0.1991758793592453,
3.1324999999999998,-0.1998249739408493,
3.1349999999999998,-0.20054619014263153,
3.1375000000000002,-0.20174822211265564,
3.1400000000000001,-0.20191650092601776,
3.1425000000000001,-0.20167610049247742,
3.145,-0.20088276267051697,
3.1475,-0.1976853609085083,
3.1499999999999999,-0.19537746906280518,
3.1524999999999999,-0.19273301959037781,
3.1549999999999998,-0.18992027640342712,
3.1575000000000002,-0.1845351904630661,
3.1600000000000001,-0.18227538466453552,
3.1625000000000001,-0.18049637973308563,
3.165,-0.17924627661705017,
3.1675,-0.1783808171749115,
3.1699999999999999,-0.17866930365562439,
3.1724999999999999,-0.17931839823722839,
3.1749999999999998,-0.18025597929954529,
3.1775000000000002,-0.18246769905090332,
3.1800000000000002,-0.18352548778057098,
3.1825000000000001,-0.18441498279571533,
3.1850000000000001,-0.18499195575714111,
3.1875,-0.18472751975059509,
3.1899999999999999,-0.18357357382774353,
3.1924999999999999,-0.18160223960876465,
3.1949999999999998,-0.17866930365562439,
3.1974999999999998,-0.17472665011882782,
3.2000000000000002,-0.16412477195262909,
3.2025000000000001,-0.15780210494995117,
3.2050000000000001,-0.15121500194072723,
3.2075,-0.13881008327007294,
3.21,-0.1339058130979538,
3.2124999999999999,-0.13037185370922089,
3.2149999999999999,-0.12856881320476532,
3.2174999999999998,-0.12866497039794922,
3.2200000000000002,-0.13462702929973602,
3.2225000000000001,-0.14018039405345917,
3.2250000000000001,-0.14703194797039032,
3.2275,-0.16292273998260498,
3.23,-0.17109653353691101,
3.2324999999999999,-0.17893373966217041,
3.2349999999999999,-0.186121866106987,
3.2374999999999998,-0.19792577624320984,
3.2400000000000002,-0.20249347388744354,
3.2425000000000002,-0.20621976256370544,
3.2450000000000001,-0.20927290618419647,
3.2475000000000001,-0.21177312731742859,
3.25,-0.21533112227916718,
3.2524999999999999,-0.21634082496166229,
3.2549999999999999,-0.21665334701538086,
3.2574999999999998,-0.2161484956741333,
3.2599999999999998,-0.21194140613079071,
3.2625000000000002,-0.20823916792869568,
3.2650000000000001,-0.203743577003479,
3.2675000000000001,-0.19472837448120117,
3.27,-0.19196371734142303,
3.2725,-0.19177138805389404,
3.2749999999999999,-0.19523322582244873,
3.2774999999999999,-0.21631678938865662,
3.2799999999999998,-0.23463568091392517,
3.2825000000000002,-0.25769054889678955,
3.2850000000000001,-0.28442364931106567,
3.2875000000000001,-0.34142374992370605,
3.29,-0.3666422963142395,
3.2925,-0.38568240404129028,
3.2949999999999999,-0.3953707218170166,
3.2974999999999999,-0.37426313757896423,
3.2999999999999998,-0.33827444911003113,
3.3025000000000002,-0.28295716643333435,
3.3050000000000002,-0.20773431658744812,
3.3075000000000001,-0.0016347568016499281,
3.3100000000000001,0.12359242141246796,
3.3125,0.25725781917572021,
3.3149999999999999,0.39291858673095703,
3.3174999999999999,0.63983899354934692,
3.3199999999999998,0.7352558970451355,
3.3224999999999998,0.80235302448272705,
3.3250000000000002,0.83569729328155518,
3.3275000000000001,0.79102993011474609,
3.3300000000000001,0.71474933624267578,
3.3325,0.60827374458312988,
3.335,0.47893565893173218,
3.3374999999999999,0.18782874941825867,
3.3399999999999999,0.045027934014797211,
3.3424999999999998,-0.0845746248960495,
3.3450000000000002,-0.19463221728801727,
3.3475000000000001,-0.34228920936584473,
3.3500000000000001,-0.37911933660507202,
3.3525,-0.39428889751434326,
3.355,-0.39195698499679565,
3.3574999999999999,-0.35418927669525146,
3.3599999999999999,-0.32815337181091309,
3.3624999999999998,-0.30243000388145447,
3.3650000000000002,-0.27951937913894653,
3.3675000000000002,-0.2468242347240448,
3.3700000000000001,-0.23713588714599609,
3.3725000000000001,-0.23100554943084717,
3.375,-0.22735139727592468,
3.3774999999999999,-0.223697230219841,
3.3799999999999999,-0.22215864062309265,
3.3824999999999998,-0.22023539245128632,
3.3849999999999998,-0.21775922179222107,
3.3875000000000002,-0.21143655478954315,
3.3900000000000001,-0.2078545093536377,
3.3925000000000001,-0.20422439277172089,
3.395,-0.20061831176280975,
3.3975,-0.1937667578458786,
3.3999999999999999,-0.19056937098503113,
3.4024999999999999,-0.18744409084320068,
3.4049999999999998,-0.18441498279571533,
3.4075000000000002,-0.17842888832092285,
3.4100000000000001,-0.17547190189361572,
3.4125000000000001,-0.17253896594047546,
3.415,-0.16970217227935791,
3.4175,-0.16441325843334198,
3.4199999999999999,-0.16203324496746063,
3.4224999999999999,-0.15982151031494141,
3.4249999999999998,-0.15775403380393982,
3.4275000000000002,-0.15397965908050537,
3.4300000000000002,-0.15212854743003845,
3.4325000000000001,-0.15025338530540466,
3.4350000000000001,-0.14830610156059265,
3.4375,-0.14421920478343964,
3.4399999999999999,-0.14215171337127686,
3.4424999999999999,-0.14010827243328094,
3.4449999999999998,-0.13818502426147461,
3.4474999999999998,-0.1345549076795578,
3.4500000000000002,-0.13277590274810791,
3.4525000000000001,-0.13087670505046844,
3.4550000000000001,-0.12873709201812744,
3.4575,-0.12315969169139862,
3.46,-0.11950552463531494,
3.4624999999999999,-0.11527439206838608,
3.4649999999999999,-0.11049032211303711,
3.4674999999999998,-0.099912486970424652,
3.4700000000000002,-0.094455286860466003,
3.4725000000000001,-0.08919040858745575,
3.4750000000000001,-0.084189973771572113,
3.4775,-0.075294971466064453,
3.48,-0.071280203759670258,
3.4824999999999999,-0.067385636270046234,
3.4849999999999999,-0.063370868563652039,
3.4874999999999998,-0.054283540695905685,
3.4900000000000002,-0.048874419182538986,
3.4925000000000002,-0.04274408146739006,
3.4950000000000001,-0.035868488252162933,
3.4975000000000001,-0.020194053649902344,
3.5,-0.011611580848693848,
3.5024999999999999,-0.0027165811043232679,
3.5049999999999999,0.0062745809555053711,
3.5074999999999998,0.024016499519348145,
3.5099999999999998,0.032454729080200195,
3.5125000000000002,0.040412150323390961,
3.5150000000000001,0.047768555581569672,
3.5175000000000001,0.060293674468994141,
3.52,0.065342187881469727,
3.5225,0.069573327898979187,
3.5249999999999999,0.073011122643947601,
3.5274999999999999,0.077699027955532074,
3.5299999999999998,0.0791655033826828,
3.5325000000000002,0.080151163041591644,
3.5350000000000001,0.080704092979431152,
3.5375000000000001,0.080680057406425476,
3.54,0.07995884120464325,
3.5425,0.078612565994262695,
3.5449999999999999,0.076448917388916016,
3.5474999999999999,0.06885211169719696,
3.5499999999999998,0.063082382082939148,
3.5525000000000002,0.055774055421352386,
3.5550000000000002,0.046951174736022949,
3.5575000000000001,0.024954080581665039,
3.5600000000000001,0.01214047335088253,
3.5625,-0.0015385946026071906,
3.5649999999999999,-0.015722513198852539,
3.5674999999999999,-0.044402878731489182,
3.5699999999999998,-0.058298312127590179,
3.5724999999999998,-0.071664854884147644,
3.5750000000000002,-0.084358260035514832,
3.5775000000000001,-0.10772566497325897,
3.5800000000000001,-0.11854390799999237,
3.5825,-0.12892942130565643,
3.585,-0.13895432651042938,
3.5874999999999999,-0.15809059143066406,
3.5899999999999999,-0.16717791557312012,
3.5924999999999998,-0.17578443884849548,
3.5950000000000002,-0.18376588821411133,
3.5975000000000001,-0.19730071723461151,
3.6000000000000001,-0.20256559550762177,
3.6025,-0.20677268505096436,
3.605,-0.20994603633880615,
3.6074999999999999,-0.21369636058807373,
3.6099999999999999,-0.21463394165039062,
3.6124999999999998,-0.21523496508598328,
3.6150000000000002,-0.21571576595306396,
3.6175000000000002,-0.21694183349609375,
3.6200000000000001,-0.21785537898540497,
3.6225000000000001,-0.21898528933525085,
3.625,-0.22030751407146454,
3.6274999999999999,-0.22312025725841522,
3.6299999999999999,-0.22441844642162323,
3.6324999999999998,-0.22557239234447479,
3.6349999999999998,-0.22648593783378601,
3.6375000000000002,-0.22759179770946503,
3.6400000000000001,-0.22773604094982147,
3.6425000000000001,-0.22768795490264893,
3.645,-0.22742351889610291,
3.6475,-0.22634169459342957,
3.6499999999999999,-0.22562047839164734,
3.6524999999999999,-0.22475501894950867,
3.6549999999999998,-0.22384147346019745,
3.6575000000000002,-0.22201439738273621,
3.6600000000000001,-0.22117297351360321,
3.6625000000000001,-0.22049984335899353,
3.665,-0.22001902759075165,
3.6675,-0.21968245506286621,
3.6699999999999999,-0.2197786271572113,
3.6724999999999999,-0.2199709415435791,
3.6749999999999998,-0.22016327083110809,
3.6775000000000002,-0.22004306316375732,
3.6800000000000002,-0.21956226229667664,
3.6825000000000001,-0.21872083842754364,
3.6850000000000001,-0.21759092807769775,
3.6875,-0.21485030651092529,
3.6899999999999999,-0.21355211734771729,
3.6924999999999999,-0.21256646513938904,
3.6949999999999998,-0.21203756332397461,
3.6974999999999998,-0.21271070837974548,
3.7000000000000002,-0.21386465430259705,
3.7025000000000001,-0.21542727947235107,
3.7050000000000001,-0.21713416278362274,
3.7075,-0.22009114921092987,
3.71,-0.22086045145988464,
3.7124999999999999,-0.22093257308006287,
3.7149999999999999,-0.22028347849845886,
3.7174999999999998,-0.21684567630290985,
3.7200000000000002,-0.2143695056438446,
3.7225000000000001,-0.21165291965007782,
3.7250000000000001,-0.20896038413047791,
3.7275,-0.20446479320526123,
3.73,-0.2029983252286911,
3.7324999999999999,-0.20222902297973633,
3.7349999999999999,-0.20210883021354675,
3.7374999999999998,-0.20362338423728943,
3.7400000000000002,-0.20487348735332489,
3.7425000000000002,-0.20612359046936035,
3.7450000000000001,-0.20703713595867157,
3.7475000000000001,-0.20677268505096436,
3.75,-0.20518600940704346,
3.7524999999999999,-0.20256559550762177,
3.7549999999999999,-0.19900760054588318,
3.7574999999999998,-0.19037704169750214,
3.7599999999999998,-0.1862180233001709,
3.7625000000000002,-0.1828523576259613,
3.7650000000000001,-0.18068870902061462,
3.7675000000000001,-0.18097719550132751,
3.77,-0.18340528011322021,
3.7725,-0.18693923950195312,
3.7749999999999999,-0.19107422232627869,
3.7774999999999999,-0.19883930683135986,
3.7799999999999998,-0.20136356353759766,
3.7825000000000002,-0.20254155993461609,
3.7850000000000001,-0.20227710902690887,
3.7875000000000001,-0.1983344554901123,
3.79,-0.1954495906829834,
3.7925,-0.19266089797019958,
3.7949999999999999,-0.19037704169750214,
3.7974999999999999,-0.1884537935256958,
3.7999999999999998,-0.18888652324676514,
3.8025000000000002,-0.18999239802360535,
3.8050000000000002,-0.19145886600017548,
3.8075000000000001,-0.19393503665924072,
3.8100000000000001,-0.19439181685447693,
3.8125,-0.19412736594676971,
3.8149999999999999,-0.19318978488445282,
3.8174999999999999,-0.18999239802360535,
3.8199999999999998,-0.18823742866516113,
3.8224999999999998,-0.186770960688591,
3.8250000000000002,-0.18571317195892334,
3.8275000000000001,-0.18530449271202087,
3.8300000000000001,-0.18583337962627411,
3.8325,-0.18669883906841278,
3.835,-0.18766045570373535,
3.8374999999999999,-0.1891990602016449,
3.8399999999999999,-0.18946349620819092,
3.8424999999999998,-0.1892952173948288,
3.8450000000000002,-0.18867015838623047,
3.8475000000000001,-0.18636226654052734,
3.8500000000000001,-0.18491983413696289,
3.8525,-0.18347740173339844,
3.855,-0.18222729861736298,
3.8574999999999999,-0.1807127445936203,
3.8599999999999999,-0.18066465854644775,
3.8624999999999998,-0.18112143874168396,
3.8650000000000002,-0.18208305537700653,
3.8675000000000002,-0.18508812785148621,
3.8700000000000001,-0.18684308230876923,
3.8725000000000001,-0.18852591514587402,
3.875,-0.18999239802360535,
3.8774999999999999,-0.19145886600017548,
3.8799999999999999,-0.19129058718681335,
3.8824999999999998,-0.19044916331768036,
3.8849999999999998,-0.18900673091411591,
3.8875000000000002,-0.18477559089660645,
3.8900000000000001,-0.18237154185771942,
3.8925000000000001,-0.18003961443901062,
3.895,-0.17799615859985352,
3.8975,-0.17535170912742615,
3.8999999999999999,-0.17491897940635681,
3.9024999999999999,-0.17503917217254639,
3.9049999999999998,-0.17568826675415039,
3.9075000000000002,-0.17806828022003174,
3.9100000000000001,-0.17951071262359619,
3.9125000000000001,-0.18095314502716064,
3.915,-0.18225133419036865,
3.9175,-0.18417458236217499,
3.9199999999999999,-0.18465539813041687,
3.9224999999999999,-0.18475155532360077,
3.9249999999999998,-0.18448710441589355,
3.9275000000000002,-0.18280427157878876,
3.9300000000000002,-0.18153011798858643,
3.9325000000000001,-0.18003961443901062,
3.9350000000000001,-0.1784769743680954,
3.9375,-0.17568826675415039,
3.9399999999999999,-0.17477473616600037,
3.9424999999999999,-0.17429392039775848,
3.9449999999999998,-0.17431795597076416,
3.9474999999999998,-0.17571231722831726,
3.9500000000000002,-0.17684221267700195,
3.9525000000000001,-0.17804424464702606,
3.9550000000000001,-0.17905394732952118,
3.9575,-0.17991940677165985,
3.96,-0.17953476309776306,
3.9624999999999999,-0.17854909598827362,
3.9649999999999999,-0.17708262801170349,
3.9674999999999998,-0.17326018214225769,
3.9700000000000002,-0.17124077677726746,
3.9725000000000001,-0.16938965022563934,
3.9750000000000001,-0.1677548885345459,
3.9775,-0.16523063182830811,
3.98,-0.16419689357280731,
3.9824999999999999,-0.16311506927013397,
3.9849999999999999,-0.16188900172710419,
3.9874999999999998,-0.15861949324607849,
3.9900000000000002,-0.15657603740692139,
3.9925000000000002,-0.15438835322856903,
3.9950000000000001,-0.15220066905021667,
3.9975000000000001,-0.14871478080749512,
4,-0.14782528579235077,0
4.0025000000000004,-0.14763295650482178,
4.0049999999999999,-0.14818589389324188,
4.0075000000000003,-0.15099863708019257,
4.0099999999999998,-0.15277764201164246,
4.0125000000000002,-0.15438835322856903,
4.0149999999999997,-0.15547017753124237,
4.0175000000000001,-0.15479704737663269,
4.0199999999999996,-0.15260934829711914,
4.0225,-0.14907538890838623,
4.0250000000000004,-0.14426729083061218,
4.0274999999999999,-0.13181428611278534,
4.0300000000000002,-0.12493868917226791,
4.0324999999999998,-0.11820733547210693,
4.0350000000000001,-0.11214911937713623,
4.0374999999999996,-0.10363876819610596,
4.04,-0.10185977071523666,
4.0425000000000004,-0.10195593535900116,
4.0449999999999999,-0.10392725467681885,
4.0475000000000003,-0.11279821395874023,
4.0499999999999998,-0.11907279491424561,
4.0525000000000002,-0.12604455649852753,
4.0549999999999997,-0.13325671851634979,
4.0575000000000001,-0.14691174030303955,
4.0599999999999996,-0.15275359153747559,
4.0625,-0.15772998332977295,
4.0650000000000004,-0.16181688010692596,
4.0674999999999999,-0.16777893900871277,
4.0700000000000003,-0.17006278038024902,
4.0724999999999998,-0.1721302717924118,
4.0750000000000002,-0.17410159111022949,
4.0774999999999997,-0.17794808745384216,
4.0800000000000001,-0.17953476309776306,
4.0824999999999996,-0.18056850135326385,
4.085,-0.18078486621379852,
4.0875000000000004,-0.17785191535949707,
4.0899999999999999,-0.1747506856918335,
4.0925000000000002,-0.1709282398223877,
4.0949999999999998,-0.16703367233276367,
4.0975000000000001,-0.16287466883659363,
4.0999999999999996,-0.16474983096122742,
4.1025,-0.17066380381584167,
4.1050000000000004,-0.1813618391752243,
4.1074999999999999,-0.21783134341239929,
4.1100000000000003,-0.24256905913352966,
4.1124999999999998,-0.26987910270690918,
4.1150000000000002,-0.29769402742385864,
4.1174999999999997,-0.34414035081863403,
4.1200000000000001,-0.35671353340148926,
4.1224999999999996,-0.35801172256469727,
4.125,-0.34517407417297363,
4.1275000000000004,-0.26793181896209717,
4.1299999999999999,-0.20097891986370087,
4.1325000000000003,-0.11517822742462158,
4.1349999999999998,-0.01216451358050108,
4.1375000000000002,0.23172676563262939,
4.1399999999999997,0.36224287748336792,
4.1425000000000001,0.48960965871810913,
4.1449999999999996,0.60625433921813965,
4.1475,0.77747106552124023,
4.1500000000000004,0.81927758455276489,
4.1524999999999999,0.82617723941802979,
4.1550000000000002,0.79679965972900391,
4.1574999999999998,0.63731473684310913,
4.1600000000000001,0.517616868019104,
4.1624999999999996,0.38161954283714294,
4.165,0.23855428397655487,
4.1675000000000004,-0.032550893723964691,
4.1699999999999999,-0.14520487189292908,
4.1725000000000003,-0.23559729754924774,
4.1749999999999998,-0.30144435167312622,
4.1775000000000002,-0.36212265491485596,
4.1799999999999997,-0.36298811435699463,
4.1825000000000001,-0.35024663805961609,
4.1849999999999996,-0.32892268896102905,
4.1875,-0.27841350436210632,
4.1900000000000004,-0.2558634877204895,
4.1924999999999999,-0.23761670291423798,
4.1950000000000003,-0.22422611713409424,
4.1974999999999998,-0.20997008681297302,
4.2000000000000002,-0.20698904991149902,
4.2024999999999997,-0.20518600940704346,
4.2050000000000001,-0.20355126261711121,
4.2074999999999996,-0.19850274920463562,
4.21,-0.1947043389081955,
4.2125000000000004,-0.19025683403015137,
4.2149999999999999,-0.18544873595237732,
4.2175000000000002,-0.1759527176618576,
4.2199999999999998,-0.17172157764434814,
4.2225000000000001,-0.16792318224906921,
4.2249999999999996,-0.16453346610069275,
4.2275,-0.15847525000572205,
4.2300000000000004,-0.15559038519859314,
4.2324999999999999,-0.15265743434429169,
4.2350000000000003,-0.14965236186981201,
4.2374999999999998,-0.14354607462882996,
4.2400000000000002,-0.14054100215435028,
4.2424999999999997,-0.13768017292022705,
4.2450000000000001,-0.13493955135345459,
4.2474999999999996,-0.12993912398815155,
4.25,-0.12758314609527588,
4.2525000000000004,-0.12525121867656708,
4.2549999999999999,-0.12294332683086395,
4.2575000000000003,-0.11827945709228516,
4.2599999999999998,-0.11604368686676025,
4.2625000000000002,-0.11390408128499985,
4.2649999999999997,-0.11195679754018784,
4.2675000000000001,-0.10866324603557587,
4.2699999999999996,-0.10724484920501709,
4.2725,-0.10582645982503891,
4.2750000000000004,-0.10423978418111801,
4.2774999999999999,-0.099840365350246429,
4.2800000000000002,-0.096739135682582855,
4.2824999999999998,-0.092964768409729004,
4.2850000000000001,-0.088541314005851746,
4.2874999999999996,-0.078372165560722351,
4.29,-0.073035165667533875,
4.2925000000000004,-0.067842409014701843,
4.2949999999999999,-0.062938138842582703,
4.2975000000000003,-0.054283540695905685,
4.2999999999999998,-0.05043705552816391,
4.3025000000000002,-0.046758852899074554,
4.3049999999999997,-0.042984485626220703,
4.3075000000000001,-0.034546256065368652,
4.3099999999999996,-0.029569864273071289,
4.3125,-0.024064581841230392,
4.3150000000000004,-0.018030405044555664,
4.3174999999999999,-0.004784067627042532,
4.3200000000000003,0.0021876893006265163,
4.3224999999999998,0.009255608543753624,
4.3250000000000002,0.016323527321219444,
4.3274999999999997,0.030387243255972862,
4.3300000000000001,0.037310920655727386,
4.3324999999999996,0.044162474572658539,
4.335,0.050893824547529221,
4.3375000000000004,0.063851676881313324,
4.3399999999999999,0.0699339359998703,
4.3425000000000002,0.07567962259054184,
4.3449999999999998,0.081040665507316589,
4.3475000000000001,0.090608797967433929,
4.3499999999999996,0.094839930534362793,
4.3525,0.098734498023986816,
4.3550000000000004,0.102292500436306,
4.3574999999999999,0.10823051631450653,
4.3600000000000003,0.11041820049285889,
4.3624999999999998,0.11188467592000961,
4.3650000000000002,0.11241357028484344,
4.3674999999999997,0.1099373921751976,
4.3700000000000001,0.10659575462341309,
4.3724999999999996,0.10171552747488022,
4.375,0.095248624682426453,
4.3775000000000004,0.077867314219474792,
4.3799999999999999,0.067217350006103516,
4.3825000000000003,0.055533647537231445,
4.3849999999999998,0.043032567948102951,
4.3875000000000002,0.01646777056157589,
4.3899999999999997,0.0028127431869506836,
4.3925000000000001,-0.010866324417293072,
4.3949999999999996,-0.024425189942121506,
4.3975,-0.050845742225646973,
4.4000000000000004,-0.06353914737701416,
4.4024999999999999,-0.075799822807312012,
4.4050000000000002,-0.087579689919948578,
4.4074999999999998,-0.10943254083395004,
4.4100000000000001,-0.11938532441854477,
4.4124999999999996,-0.12864093482494354,
4.415,-0.13712725043296814,
4.4175000000000004,-0.15186409652233124,
4.4199999999999999,-0.15816271305084229,
4.4225000000000003,-0.16378819942474365,
4.4249999999999998,-0.16886076331138611,
4.4275000000000002,-0.1776355504989624,
4.4299999999999997,-0.18150608241558075,
4.4325000000000001,-0.18516024947166443,
4.4349999999999996,-0.18857400119304657,
4.4375,-0.19482454657554626,
4.4400000000000004,-0.19761323928833008,
4.4424999999999999,-0.20008942484855652,
4.4450000000000003,-0.20220498740673065,
4.4474999999999998,-0.20518600940704346,
4.4500000000000002,-0.20595531165599823,
4.4524999999999997,-0.20621976256370544,
4.4550000000000001,-0.20602743327617645,
4.4574999999999996,-0.20441672205924988,
4.46,-0.20319065451622009,
4.4625000000000004,-0.20182034373283386,
4.4649999999999999,-0.20042598247528076,
4.4675000000000002,-0.19804596900939941,
4.4699999999999998,-0.19725263118743896,
4.4725000000000001,-0.19679586589336395,
4.4749999999999996,-0.19672374427318573,
4.4775,-0.19756516814231873,
4.4800000000000004,-0.19835850596427917,
4.4824999999999999,-0.19929608702659607,
4.4850000000000003,-0.20032982528209686,
4.4874999999999998,-0.20232519507408142,
4.4900000000000002,-0.20326277613639832,
4.4924999999999997,-0.20410418510437012,
4.4950000000000001,-0.20489752292633057,
4.4974999999999996,-0.2062678337097168,
4.5,-0.20679673552513123,
4.5025000000000004,-0.20720541477203369,
4.5049999999999999,-0.20739774405956268,
4.5075000000000003,-0.20710925757884979,
4.5099999999999998,-0.20658037066459656,
4.5125000000000002,-0.20581106841564178,
4.5149999999999997,-0.20484945178031921,
4.5175000000000001,-0.20263771712779999,
4.5199999999999996,-0.20153185725212097,
4.5225,-0.20052215456962585,
4.5250000000000004,-0.19958457350730896,
4.5274999999999999,-0.19799789786338806,
4.5300000000000002,-0.19720456004142761,
4.5324999999999998,-0.19636313617229462,
4.5350000000000001,-0.19537746906280518,
4.5374999999999996,-0.19292533397674561,
4.54,-0.19145886600017548,
4.5425000000000004,-0.18989622592926025,
4.5449999999999999,-0.18828551471233368,
4.5475000000000003,-0.18525640666484833,
4.5499999999999998,-0.183982253074646,
4.5525000000000002,-0.18292447924613953,
4.5549999999999997,-0.18205901980400085,
4.5575000000000001,-0.1808089017868042,
4.5599999999999996,-0.18030405044555664,
4.5625,-0.17979919910430908,
4.5650000000000004,-0.17919819056987762,
4.5674999999999999,-0.17768363654613495,
4.5700000000000003,-0.17674605548381805,
4.5724999999999998,-0.17576038837432861,
4.5750000000000002,-0.17479877173900604,
4.5774999999999997,-0.17326018214225769,
4.5800000000000001,-0.17280340194702148,
4.5824999999999996,-0.17265915870666504,
4.585,-0.17275533080101013,
4.5875000000000004,-0.17359673976898193,
4.5899999999999999,-0.17414967715740204,
4.5925000000000002,-0.17460644245147705,
4.5949999999999998,-0.17487089335918427,
4.5975000000000001,-0.17441412806510925,
4.5999999999999996,-0.17359673976898193,
4.6025,-0.17241875827312469,
4.6050000000000004,-0.17090420424938202,
4.6074999999999999,-0.16749045252799988,
4.6100000000000003,-0.16587972640991211,
4.6124999999999998,-0.16450941562652588,
4.6150000000000002,-0.16357183456420898,
4.6174999999999997,-0.16321122646331787,
4.6200000000000001,-0.16381224989891052,
4.6224999999999996,-0.16487002372741699,
4.625,-0.16628842055797577,
4.6275000000000004,-0.16941368579864502,
4.6299999999999999,-0.17080804705619812,
4.6325000000000003,-0.17184178531169891,
4.6349999999999998,-0.17244279384613037,
4.6375000000000002,-0.17208218574523926,
4.6399999999999997,-0.17121672630310059,
4.6425000000000001,-0.17001470923423767,
4.6449999999999996,-0.16862034797668457,
4.6475,-0.16602396965026855,
4.6500000000000004,-0.16511043906211853,
4.6524999999999999,-0.1645815372467041,
4.6550000000000002,-0.16446134448051453,
4.6574999999999998,-0.16523063182830811,
4.6600000000000001,-0.16583165526390076,
4.6624999999999996,-0.16636054217815399,
4.665,-0.16664902865886688,
4.6675000000000004,-0.16604802012443542,
4.6699999999999999,-0.16506235301494598,
4.6725000000000003,-0.1637401282787323,
4.6749999999999998,-0.1622496098279953,
4.6775000000000002,-0.15960514545440674,
4.6799999999999997,-0.15888392925262451,
4.6825000000000001,-0.15878777205944061,
4.6849999999999996,-0.15936474502086639,
4.6875,-0.16241788864135742,
4.6900000000000004,-0.16450941562652588,
4.6924999999999999,-0.16664902865886688,
4.6950000000000003,-0.16859631240367889,
4.6974999999999998,-0.17090420424938202,
4.7000000000000002,-0.17102441191673279,
4.7024999999999997,-0.17042338848114014,
4.7050000000000001,-0.1692454069852829,
4.7074999999999996,-0.16583165526390076,
4.71,-0.16407668590545654,
4.7125000000000004,-0.16258618235588074,
4.7149999999999999,-0.1615043580532074,
4.7175000000000002,-0.16080717742443085,
4.7199999999999998,-0.16114374995231628,
4.7225000000000001,-0.16176879405975342,
4.7249999999999996,-0.16253809630870819,
4.7275,-0.16386032104492188,
4.7300000000000004,-0.16419689357280731,
4.7324999999999999,-0.16422092914581299,
4.7350000000000003,-0.1639324426651001,
4.7374999999999998,-0.16273042559623718,
4.7400000000000002,-0.16193708777427673,
4.7424999999999997,-0.16111969947814941,
4.7450000000000001,-0.16030232608318329,
4.7474999999999996,-0.15876373648643494,
4.75,-0.15799443423748016,
4.7525000000000004,-0.15717706084251404,
4.7549999999999999,-0.15626351535320282,
4.7575000000000003,-0.15422007441520691,
4.7599999999999998,-0.15313825011253357,
4.7625000000000002,-0.15210449695587158,
4.7649999999999997,-0.15123903751373291,
4.7675000000000001,-0.15018126368522644,
4.7699999999999996,-0.15006105601787567,
4.7725,-0.15022933483123779,
4.7750000000000004,-0.15054187178611755,
4.7774999999999999,-0.151335209608078,
4.7800000000000002,-0.1515275239944458,
4.7824999999999998,-0.15147945284843445,
4.7850000000000001,-0.15109479427337646,
4.7874999999999996,-0.14943599700927734,
4.79,-0.14823397994041443,
4.7925000000000004,-0.14691174030303955,
4.7949999999999999,-0.14558951556682587,
4.7975000000000003,-0.14308929443359375,
4.7999999999999998,-0.14198343455791473,
4.8025000000000002,-0.14092564582824707,
4.8049999999999997,-0.13984382152557373,
4.8075000000000001,-0.13746380805969238,
4.8099999999999996,-0.13609349727630615,
4.8125,-0.13460299372673035,
4.8150000000000004,-0.13308843970298767,
4.8174999999999999,-0.13041993975639343,
4.8200000000000003,-0.12950639426708221,
4.8224999999999998,-0.12895345687866211,
4.8250000000000002,-0.12885729968547821,
4.8274999999999997,-0.12960255146026611,
4.8300000000000001,-0.13015548884868622,
4.8324999999999996,-0.13056418299674988,
4.835,-0.13056418299674988,
4.8375000000000004,-0.12847265601158142,
4.8399999999999999,-0.1260685920715332,
4.8425000000000002,-0.12265484035015106,
4.8449999999999998,-0.1183275431394577,
4.8475000000000001,-0.10755737870931625,
4.8499999999999996,-0.10159532725811005,
4.8525,-0.095705389976501465,
4.8550000000000004,-0.090176068246364594,
4.8574999999999999,-0.081473395228385925,
4.8600000000000003,-0.078828930854797363,
4.8624999999999998,-0.077530741691589355,
4.8650000000000002,-0.077699027955532074,
4.8674999999999997,-0.082362890243530273,
4.8700000000000001,-0.086666151881217957,
4.8724999999999996,-0.09197910875082016,
4.875,-0.098061367869377136,
4.8775000000000004,-0.11111538112163544,
4.8799999999999999,-0.11736591905355453,
4.8825000000000003,-0.12303948402404785,
4.8849999999999998,-0.12787163257598877,
4.8875000000000002,-0.1346510648727417,
4.8899999999999997,-0.13671855628490448,
4.8925000000000001,-0.13813695311546326,
4.8949999999999996,-0.1392187774181366,
4.8975,-0.14138242602348328,
4.9000000000000004,-0.14282485842704773,
4.9024999999999999,-0.1445317268371582,
4.9050000000000002,-0.14633476734161377,
4.9074999999999998,-0.14900326728820801,
4.9100000000000001,-0.14924368262290955,
4.9124999999999996,-0.14852246642112732,
4.915,-0.1468636691570282,
4.9175000000000004,-0.14256040751934052,
4.9199999999999999,-0.14140646159648895,
4.9225000000000003,-0.14227192103862762,
4.9249999999999998,-0.14619052410125732,
4.9275000000000002,-0.16640862822532654,
4.9299999999999997,-0.18342933058738708,
4.9325000000000001,-0.204585000872612,
4.9349999999999996,-0.22886595129966736,
4.9375,-0.27944725751876831,
4.9400000000000004,-0.3008192777633667,
4.9424999999999999,-0.31570038199424744,
4.9450000000000003,-0.32098931074142456,
4.9474999999999998,-0.29079437255859375,
4.9500000000000002,-0.25043031573295593,
4.9524999999999997,-0.19112229347229004,
4.9550000000000001,-0.11258184909820557,
4.9574999999999996,0.09659489244222641,
4.96,0.22066812217235565,
4.9625000000000004,0.35082361102104187,
4.9649999999999999,0.48028191924095154,
4.9675000000000002,0.7063591480255127,
4.9699999999999998,0.78761619329452515,
4.9725000000000001,0.83889466524124146,
4.9749999999999996,0.85572302341461182,
4.9775,0.78052425384521484,
4.9800000000000004,0.69258391857147217,
4.9824999999999999,0.57815098762512207,
4.9850000000000003,0.44518274068832397,
4.9874999999999998,0.16030232608318329,
4.9900000000000002,0.026540756225585938,
4.9924999999999997,-0.091185770928859711,
4.9950000000000001,-0.18758833408355713,
4.9974999999999996,-0.3074304461479187,
5,-0.33216816186904907,70.351760864257812
5.0025000000000004,-0.33748111128807068,
5.0049999999999999,-0.32791298627853394,
5.0075000000000003,-0.28379857540130615,
5.0099999999999998,-0.2580992579460144,
5.0125000000000002,-0.23437123000621796,
5.0149999999999997,-0.21453778445720673,
5.0175000000000001,-0.18881440162658691,
5.0199999999999996,-0.18210709095001221,
5.0225,-0.17814040184020996,
5.0250000000000004,-0.17573635280132294,
5.0274999999999999,-0.17179369926452637,
5.0300000000000002,-0.16907712817192078,
5.0324999999999998,-0.16554316878318787,
5.0350000000000001,-0.16131202876567841,
5.0374999999999996,-0.15174388885498047,
5.04,-0.14693579077720642,
5.0425000000000004,-0.14236807823181152,
5.0449999999999999,-0.13818502426147461,
5.0475000000000003,-0.13097286224365234,
5.0499999999999998,-0.12791971862316132,
5.0525000000000002,-0.12513101100921631,
5.0549999999999997,-0.12258271872997284,
5.0575000000000001,-0.11818329989910126,
5.0599999999999996,-0.11630813777446747,
5.0625,-0.11462529748678207,
5.0650000000000004,-0.11174043267965317,
5.0674999999999999,-0.11041820049285889,
5.0700000000000003,-0.10912001132965088,
5.0724999999999998,-0.10774970054626465,
5.0750000000000002,-0.10625918954610825,
5.0774999999999997,-0.10289351642131805,
5.0800000000000001,-0.10099431127309799,
5.0824999999999996,-0.098974905908107758,
5.085,-0.096835300326347351,
5.0875000000000004,-0.092171430587768555,
5.0899999999999999,-0.089623138308525085,
5.0925000000000002,-0.086930595338344574,
5.0949999999999998,-0.08092045783996582,
5.0975000000000001,-0.077650949358940125,
5.0999999999999996,-0.07426123321056366,
5.1025,-0.070775352418422699,
5.1050000000000004,-0.067337557673454285,
5.1074999999999999,-0.060798525810241699,
5.1100000000000003,-0.057865582406520844,
5.1124999999999998,-0.055124960839748383,
5.1150000000000002,-0.05260070413351059,
5.1174999999999997,-0.047672390937805176,
5.1200000000000001,-0.045003890991210938,
5.1224999999999996,-0.041974782943725586,
5.125,-0.038416784256696701,
5.1275000000000004,-0.029353499412536621,
5.1299999999999999,-0.023728013038635254,
5.1325000000000003,-0.017429392784833908,
5.1349999999999998,-0.010553797706961632,
5.1375000000000002,0.0043272972106933594,
5.1399999999999997,0.011996230110526085,
5.1425000000000001,0.019593041390180588,
5.1449999999999996,0.026973485946655273,
5.1475,0.040917001664638519,
5.1500000000000004,0.047431986778974533,
5.1524999999999999,0.053706567734479904,
5.1550000000000002,0.065847039222717285,
5.1574999999999998,0.071881219744682312,
5.1600000000000001,0.078011557459831238,
5.1624999999999996,0.084238052368164062,
5.165,0.090512633323669434,
5.1675000000000004,0.10298967361450195,
5.1699999999999999,0.10887961089611053,
5.1725000000000003,0.11433681100606918,
5.1749999999999998,0.1191689595580101,
5.1775000000000002,0.12638112902641296,
5.1799999999999997,0.12854477763175964,
5.1825000000000001,0.12972275912761688,
5.1849999999999996,0.12907366454601288,
5.1875,0.12736678123474121,
5.1900000000000004,0.12479444593191147,
5.1924999999999999,0.12138068675994873,
5.1950000000000003,0.11714955419301987,
5.1974999999999998,0.10609090328216553,
5.2000000000000002,0.099143192172050476,
5.2024999999999997,0.091137692332267761,
5.2050000000000001,0.082074403762817383,
5.2074999999999996,0.060702364891767502,
5.21,0.048513811081647873,
5.2125000000000004,0.035483837127685547,
5.2149999999999999,0.021756689995527267,
5.2175000000000002,-0.0069957971572875977,
5.2199999999999998,-0.021612446755170822,
5.2225000000000001,-0.036132931709289551,
5.2249999999999996,-0.050340890884399414,
5.2275,-0.077218219637870789,
5.2300000000000004,-0.089502930641174316,
5.2324999999999999,-0.10082602500915527,
5.2350000000000003,-0.11106729507446289,
5.2374999999999998,-0.12779951095581055,
5.2400000000000002,-0.13424238562583923,
5.2424999999999997,-0.13945917785167694,
5.2450000000000001,-0.14688770473003387,
5.2474999999999996,-0.14955620467662811,
5.25,-0.15191218256950378,
5.2525000000000004,-0.15426814556121826,
5.2549999999999999,-0.15982151031494141,
5.2575000000000003,-0.16328334808349609,
5.2599999999999998,-0.16715388000011444,
5.2625000000000002,-0.17133693397045135,
5.2649999999999997,-0.17554402351379395,
5.2675000000000001,-0.18292447924613953,
5.2699999999999996,-0.18552085757255554,
5.2725,-0.18708348274230957,
5.2750000000000004,-0.18758833408355713,
5.2774999999999999,-0.18559297919273376,
5.2800000000000002,-0.18347740173339844,
5.2824999999999998,-0.18104931712150574,
5.2850000000000001,-0.17859718203544617,
5.2874999999999996,-0.17477473616600037,
5.29,-0.17383715510368347,
5.2925000000000004,-0.17364482581615448,
5.2949999999999999,-0.17414967715740204,
5.2975000000000003,-0.1767941415309906,
5.2999999999999998,-0.17854909598827362,
5.3025000000000002,-0.18032810091972351,
5.3049999999999997,-0.18330912292003632,
5.3075000000000001,-0.18429479002952576,
5.3099999999999996,-0.18487176299095154,
5.3125,-0.18508812785148621,
5.3150000000000004,-0.1845351904630661,
5.3174999999999999,-0.18391013145446777,
5.3200000000000003,-0.18311679363250732,
5.3224999999999998,-0.18222729861736298,
5.3250000000000002,-0.18030405044555664,
5.3274999999999997,-0.17934243381023407,
5.3300000000000001,-0.17842888832092285,
5.3324999999999996,-0.17761151492595673,
5.335,-0.17691433429718018,
5.3375000000000004,-0.1760488748550415,
5.3399999999999999,-0.17585656046867371,
5.3425000000000002,-0.17578443884849548,
5.3449999999999998,-0.17571231722831726,
5.3475000000000001,-0.17551998794078827,
5.3499999999999996,-0.17508725821971893,
5.3525,-0.17436604201793671,
5.3550000000000004,-0.17205815017223358,
5.3574999999999999,-0.17061571776866913,
5.3600000000000003,-0.16910116374492645,
5.3624999999999998,-0.16768276691436768,
5.3650000000000002,-0.16650478541851044,
5.3674999999999997,-0.16525468230247498,
5.3700000000000001,-0.16525468230247498,
5.3724999999999996,-0.16559123992919922,
5.375,-0.16614417731761932,
5.3775000000000004,-0.16737024486064911,
5.3799999999999999,-0.16773085296154022,
5.3825000000000003,-0.16780297458171844,
5.3849999999999998,-0.16693751513957977,
5.3875000000000002,-0.16602396965026855,
5.3899999999999997,-0.16487002372741699,
5.3925000000000001,-0.16359588503837585,
5.3949999999999996,-0.16229769587516785,
5.3975,-0.1599176824092865,
5.4000000000000004,-0.15895605087280273,
5.4024999999999999,-0.15813867747783661,
5.4050000000000002,-0.15751361846923828,
5.4074999999999998,-0.15667220950126648,
5.4100000000000001,-0.15638372302055359,
5.4124999999999996,-0.15611927211284637,
5.415,-0.15539805591106415,
5.4175000000000004,-0.15479704737663269,
5.4199999999999999,-0.15395562350749969,
5.4225000000000003,-0.15282571315765381,
5.4249999999999998,-0.1497485339641571,
5.4275000000000002,-0.14794549345970154,
5.4299999999999997,-0.1461184024810791,
5.4325000000000001,-0.1444355696439743,
5.4349999999999996,-0.14308929443359375,
5.4375,-0.1421036422252655,
5.4400000000000004,-0.14265656471252441,
5.4424999999999999,-0.14390668272972107,
5.4450000000000003,-0.14575779438018799,
5.4474999999999998,-0.15046975016593933,
5.4500000000000002,-0.15282571315765381,
5.4524999999999997,-0.15479704737663269,
5.4550000000000001,-0.15686452388763428,
5.4574999999999996,-0.1567443311214447,
5.46,-0.15587887167930603,
5.4625000000000004,-0.15438835322856903,
5.4649999999999999,-0.15044569969177246,
5.4675000000000002,-0.14840225875377655,
5.4699999999999998,-0.14662325382232666,
5.4725000000000001,-0.14525294303894043,
5.4749999999999996,-0.14393071830272675,
5.4775,-0.14395475387573242,
5.4800000000000004,-0.14431536197662354,
5.4824999999999999,-0.14484426379203796,
5.4850000000000003,-0.14597415924072266,
5.4874999999999998,-0.14633476734161377,
5.4900000000000002,-0.14650306105613708,
5.4924999999999997,-0.14647901058197021,
5.4950000000000001,-0.14628669619560242,
5.4974999999999996,-0.14563760161399841,
5.5,-0.14534911513328552,
5.5025000000000004,-0.14513275027275085,
5.5049999999999999,-0.14506062865257263,
5.5075000000000003,-0.14510869979858398,
5.5099999999999998,-0.14518082141876221,
5.5125000000000002,-0.14520487189292908,
5.5149999999999997,-0.14508466422557831,
5.5175000000000001,-0.14438748359680176,
5.5199999999999996,-0.14381051063537598,
5.5225,-0.14318546652793884,
5.5250000000000004,-0.14203152060508728,
5.5274999999999999,-0.14167091250419617,
5.5300000000000002,-0.14157474040985107,
5.5324999999999998,-0.14174303412437439,
5.5350000000000001,-0.14215171337127686,
5.5374999999999996,-0.14340183138847351,
5.54,-0.14400283992290497,
5.5425000000000004,-0.14441153407096863,
5.5449999999999999,-0.14419516921043396,
5.5475000000000003,-0.14344990253448486,
5.5499999999999998,-0.14232000708580017,
5.5525000000000002,-0.14087757468223572,
5.5549999999999997,-0.13770422339439392,
5.5575000000000001,-0.13635794818401337,
5.5599999999999996,-0.13537228107452393,
5.5625,-0.13486742973327637,
5.5650000000000004,-0.13525208830833435,
5.5674999999999999,-0.13597330451011658,
5.5700000000000003,-0.13683876395225525,
5.5724999999999998,-0.13760805130004883,
5.5750000000000002,-0.1382811963558197,
5.5774999999999997,-0.13801674544811249,
5.5800000000000001,-0.13734361529350281,
5.5824999999999996,-0.13640603423118591,
5.585,-0.13443470001220703,
5.5875000000000004,-0.1338096559047699,
5.5899999999999999,-0.13361732661724091,
5.5925000000000002,-0.13395389914512634,
5.5949999999999998,-0.13594925403594971,
5.5975000000000001,-0.13731956481933594,
5.5999999999999996,-0.13866584002971649,
5.6025,-0.13977169990539551,
5.6050000000000004,-0.1407092809677124,
5.6074999999999999,-0.14037272334098816,
5.6100000000000003,-0.13957938551902771,
5.6124999999999998,-0.13844947516918182,
5.6150000000000002,-0.13582906126976013,
5.6174999999999997,-0.1346510648727417,
5.6200000000000001,-0.13373753428459167,
5.6224999999999996,-0.13316056132316589,
5.625,-0.13277590274810791,
5.6275000000000004,-0.13282398879528046,
5.6299999999999999,-0.13292014598846436,
5.6325000000000003,-0.13294419646263123,
5.6349999999999998,-0.13258358836174011,
5.6375000000000002,-0.13217489421367645,
5.6399999999999997,-0.13164600729942322,
5.6425000000000001,-0.13106903433799744,
5.6449999999999996,-0.12993912398815155,
5.6475,-0.12941023707389832,
5.6500000000000004,-0.12892942130565643,
5.6524999999999999,-0.1284966915845871,
5.6550000000000002,-0.12763123214244843,
5.6574999999999998,-0.12722253799438477,
5.6600000000000001,-0.1268138587474823,
5.6624999999999996,-0.12647728621959686,
5.665,-0.12611667811870575,
5.6675000000000004,-0.1261647641658783,
5.6699999999999999,-0.12635707855224609,
5.6725000000000003,-0.12666961550712585,
5.6749999999999998,-0.12724658846855164,
5.6775000000000002,-0.12729465961456299,
5.6799999999999997,-0.12707829475402832,
5.6825000000000001,-0.12650132179260254,
5.6849999999999996,-0.12412130832672119,
5.6875,-0.12239038944244385,
5.6900000000000004,-0.12044310569763184,
5.6924999999999999,-0.11837562173604965,
5.6950000000000003,-0.11633217334747314,
5.6974999999999998,-0.11275013536214828,
5.7000000000000002,-0.11137982457876205,
5.7024999999999997,-0.11032204329967499,
5.7050000000000001,-0.10897576808929443,
5.7074999999999996,-0.10856708139181137,
5.71,-0.10825455188751221,
5.7125000000000004,-0.10799010843038559,
5.7149999999999999,-0.10746121406555176,
5.7175000000000002,-0.10717272758483887,
5.7199999999999998,-0.10678808391094208,
5.7225000000000001,-0.1063072681427002,
5.7249999999999996,-0.10450422763824463,
5.7275,-0.10289351642131805,
5.7300000000000004,-0.10058562457561493,
5.7324999999999999,-0.097436308860778809,
5.7350000000000003,-0.0883970707654953,
5.7374999999999998,-0.082651376724243164,
5.7400000000000002,-0.076400838792324066,
5.7424999999999997,-0.070006057620048523,
5.7450000000000001,-0.058706998825073242,
5.7474999999999996,-0.054716270416975021,
5.75,-0.052336256951093674,
5.7525000000000004,-0.051831405609846115,
5.7549999999999999,-0.056447189301252365,
5.7575000000000003,-0.06120721623301506,
5.7599999999999998,-0.067145228385925293,
5.7625000000000002,-0.0738525390625,
5.7649999999999997,-0.087747976183891296,
5.7675000000000001,-0.094287000596523285,
5.7699999999999996,-0.10024905204772949,
5.7725,-0.10558605194091797,
5.7750000000000004,-0.11462529748678207,
5.7774999999999999,-0.11856794357299805,
5.7800000000000002,-0.12229423224925995,
5.7824999999999998,-0.12587627768516541,
5.7850000000000001,-0.13239125907421112,
5.7874999999999996,-0.13501167297363281,
5.79,-0.13686279952526093,
5.7925000000000004,-0.13768017292022705,
5.7949999999999999,-0.13534824550151825,
5.7975000000000003,-0.13215085864067078,
5.7999999999999998,-0.12789568305015564,
5.8025000000000002,-0.1230875700712204,
5.8049999999999997,-0.11517822742462158,
5.8075000000000001,-0.11407236754894257,
5.8099999999999996,-0.11626005172729492,
5.8125,-0.12270291894674301,
5.8150000000000004,-0.15034954249858856,
5.8174999999999999,-0.17145714163780212,
5.8200000000000003,-0.19648334383964539,
5.8224999999999998,-0.22393763065338135,
5.8250000000000002,-0.2776922881603241,
5.8274999999999997,-0.29870373010635376,
5.8300000000000001,-0.31185388565063477,
5.8324999999999996,-0.31411370635032654,
5.835,-0.27475935220718384,
5.8375000000000004,-0.22869765758514404,
5.8399999999999999,-0.16330739855766296,
5.8425000000000002,-0.078612565994262695,
5.8449999999999998,0.1421997994184494,
5.8475000000000001,0.2713455855846405,
5.8499999999999996,0.40587645769119263,
5.8525,0.53889274597167969,
5.8550000000000004,0.7693934440612793,
5.8574999999999999,0.8514438271522522,
5.8600000000000003,0.90255403518676758,
5.8624999999999998,0.91832458972930908,
5.8650000000000002,0.83863019943237305,
5.8674999999999997,0.74754059314727783,
5.8700000000000001,0.62959772348403931,
5.8724999999999996,0.49295127391815186,
5.875,0.20090679824352264,
5.8775000000000004,0.064019963145256042,
5.8799999999999999,-0.05647122859954834,
5.8825000000000003,-0.15520572662353516,
5.8849999999999998,-0.27865391969680786,
5.8875000000000002,-0.30481001734733582,
5.8899999999999997,-0.31137308478355408,
5.8925000000000001,-0.3029589056968689,
5.8949999999999996,-0.26088795065879822,
5.8975,-0.23603002727031708,
5.9000000000000004,-0.2129751443862915,
5.9024999999999999,-0.19357442855834961,
5.9050000000000002,-0.16806742548942566,
5.9074999999999998,-0.16114374995231628,
5.9100000000000001,-0.1568404883146286,
5.9124999999999996,-0.15405178070068359,
5.915,-0.14955620467662811,
5.9175000000000004,-0.14674346148967743,
5.9199999999999999,-0.14330565929412842,
5.9225000000000003,-0.13929089903831482,
5.9249999999999998,-0.13493955135345459,
5.9275000000000002,-0.12602052092552185,
5.9299999999999997,-0.12186150252819061,
5.9325000000000001,-0.11803905665874481,
5.9349999999999996,-0.11164426803588867,
5.9375,-0.10904788970947266,
5.9400000000000004,-0.10683616250753403,
5.9424999999999999,-0.10498504340648651,
5.9450000000000003,-0.10202805697917938,
5.9474999999999998,-0.1008019894361496,
5.9500000000000002,-0.099575921893119812,
5.9524999999999997,-0.098253689706325531,
5.9550000000000001,-0.094863973557949066,
5.9574999999999996,-0.092652246356010437,
5.96,-0.090079903602600098,
5.9625000000000004,-0.087243124842643738,
5.9649999999999999,-0.084189973771572113,
5.9675000000000002,-0.077987514436244965,
5.9699999999999998,-0.075102649629116058,
5.9725000000000001,-0.072458192706108093,
5.9749999999999996,-0.068010687828063965,
5.9775,-0.066087447106838226,
5.9800000000000004,-0.064212284982204437,
5.9824999999999999,-0.0622890405356884,
5.9850000000000003,-0.057793460786342621,
5.9874999999999998,-0.055076878517866135,
5.9900000000000002,-0.051999688148498535,
5.9924999999999997,-0.048658054322004318,
5.9950000000000001,-0.041518013924360275,
5.9974999999999996,-0.037984054535627365,
6,-0.0345943383872509,75
6.0025000000000004,-0.031420987099409103,
6.0049999999999999,-0.025579135864973068,
6.0075000000000003,-0.022694271057844162,
6.0099999999999998,-0.019593041390180588,
6.0125000000000002,-0.016059082001447678,
6.0149999999999997,-0.007043878547847271,
6.0175000000000001,-0.0013462703209370375,
6.0199999999999996,0.0051206350326538086,
6.0225,0.012260675430297852,
6.0250000000000004,0.027670662850141525,
6.0274999999999999,0.035459797829389572,
6.0300000000000002,0.043008528649806976,
6.0324999999999998,0.050148569047451019,
6.0350000000000001,0.062962174415588379,
6.0374999999999996,0.068779990077018738,
6.04,0.074405476450920105,
6.0425000000000004,0.080079041421413422,
6.0449999999999999,0.092123351991176605,
6.0475000000000003,0.098734498023986816,
6.0499999999999998,0.10575433820486069,
6.0525000000000002,0.11308670043945312,
6.0549999999999997,0.12794375419616699,
6.0575000000000001,0.13503572344779968,
6.0599999999999996,0.14167091250419617,
6.0625,0.14763295650482178,
6.0650000000000004,0.15722513198852539,
6.0674999999999999,0.16078314185142517,
6.0700000000000003,0.16352376341819763,
6.0724999999999998,0.16539892554283142,
6.0750000000000002,0.16662499308586121,
6.0774999999999997,0.16585569083690643,
6.0800000000000001,0.16407668590545654,
6.0824999999999996,0.16121587157249451,
6.085,0.15193621814250946,
6.0875000000000004,0.1454693078994751,
6.0899999999999999,0.13787250220775604,
6.0925000000000002,0.1291457861661911,
6.0949999999999998,0.10880748927593231,
6.0975000000000001,0.097364187240600586,
6.0999999999999996,0.08519967645406723,
6.1025,0.072410106658935547,
6.1050000000000004,0.059019528329372406,
6.1074999999999999,0.030795931816101074,
6.1100000000000003,0.016155242919921875,
6.1124999999999998,0.0013222297420725226,
6.1150000000000002,-0.013510784134268761,
6.1174999999999997,-0.042311351746320724,
6.1200000000000001,-0.055798094719648361,
6.1224999999999996,-0.068419381976127625,
6.125,-0.090296268463134766,
6.1275000000000004,-0.099407635629177094,
6.1299999999999999,-0.10724484920501709,
6.1325000000000003,-0.11390408128499985,
6.1349999999999998,-0.12414535135030746,
6.1375000000000002,-0.12801587581634521,
6.1399999999999997,-0.13130943477153778,
6.1425000000000001,-0.13414621353149414,
6.1449999999999996,-0.13907453417778015,
6.1475,-0.14133433997631073,
6.1500000000000004,-0.14357011020183563,
6.1524999999999999,-0.14575779438018799,
6.1550000000000002,-0.15003702044487,
6.1574999999999998,-0.15205642580986023,
6.1600000000000001,-0.15388350188732147,
6.1624999999999996,-0.15551826357841492,
6.165,-0.15785019099712372,
6.1675000000000004,-0.15845119953155518,
6.1699999999999999,-0.15861949324607849,
6.1725000000000003,-0.15840312838554382,
6.1749999999999998,-0.15686452388763428,
6.1775000000000002,-0.15568654239177704,
6.1799999999999997,-0.15441238880157471,
6.1825000000000001,-0.15316228568553925,
6.1849999999999996,-0.15119096636772156,
6.1875,-0.150686115026474,
6.1900000000000004,-0.15056590735912323,
6.1924999999999999,-0.15083035826683044,
6.1950000000000003,-0.15215258300304413,
6.1974999999999998,-0.15296995639801025,
6.2000000000000002,-0.15369117259979248,
6.2024999999999997,-0.15412390232086182,
6.2050000000000001,-0.1537632942199707,
6.2074999999999996,-0.15287379920482635,
6.21,-0.1515275239944458,
6.2125000000000004,-0.14989277720451355,
6.2149999999999999,-0.14633476734161377,
6.2175000000000002,-0.14479617774486542,
6.2199999999999998,-0.14366626739501953,
6.2225000000000001,-0.1430412232875824,
6.2249999999999996,-0.14347395300865173,
6.2275,-0.14441153407096863,
6.2300000000000004,-0.14566163718700409,
6.2324999999999999,-0.147055983543396,
6.2350000000000003,-0.14950811862945557,
6.2374999999999998,-0.15025338530540466,
6.2400000000000002,-0.15049378573894501,
6.2424999999999997,-0.15022933483123779,
6.2450000000000001,-0.14828205108642578,
6.2474999999999996,-0.14679154753684998,
6.25,-0.14510869979858398,
6.2525000000000004,-0.14344990253448486,
6.2549999999999999,-0.14075736701488495,
6.2575000000000003,-0.13998806476593018,
6.2599999999999998,-0.13974766433238983,
6.2625000000000002,-0.14003615081310272,
6.2649999999999997,-0.1408054530620575,
6.2675000000000001,-0.14337778091430664,
6.2699999999999996,-0.14484426379203796,
6.2725,-0.14619052410125732,
6.2750000000000004,-0.147705078125,
6.2774999999999999,-0.14763295650482178,
6.2800000000000002,-0.14691174030303955,
6.2824999999999998,-0.14558951556682587,
6.2850000000000001,-0.14157474040985107,
6.2874999999999996,-0.13926684856414795,
6.29,-0.13705512881278992,
6.2925000000000004,-0.13510784506797791,
6.2949999999999999,-0.13272783160209656,
6.2975000000000003,-0.1324152946472168,
6.2999999999999998,-0.13267974555492401,
6.3025000000000002,-0.13335287570953369,
6.3049999999999997,-0.13537228107452393,
6.3075000000000001,-0.13630986213684082,
6.3099999999999996,-0.13695895671844482,
6.3125,-0.13717532157897949,
6.3150000000000004,-0.1361415833234787,
6.3174999999999999,-0.13493955135345459,
6.3200000000000003,-0.13344904780387878,
6.3224999999999998,-0.13179025053977966,
6.3250000000000002,-0.12871305644512177,
6.3274999999999997,-0.1275591105222702,
6.3300000000000001,-0.1268138587474823,
6.3324999999999996,-0.12645325064659119,
6.335,-0.12671768665313721,
6.3375000000000004,-0.12712638080120087,
6.3399999999999999,-0.12753507494926453,
6.3425000000000002,-0.12779951095581055,
6.3449999999999998,-0.12748698890209198,
6.3475000000000001,-0.12678980827331543,
6.3499999999999996,-0.12575607001781464,
6.3525,-0.12445788085460663,
6.3550000000000004,-0.12147685140371323,
6.3574999999999999,-0.1200103759765625,
6.3600000000000003,-0.11876027286052704,
6.3624999999999998,-0.1177746057510376,
6.3650000000000002,-0.11707743257284164,
6.3674999999999997,-0.11671682447195053,
6.3700000000000001,-0.11698126792907715,
6.3724999999999996,-0.11743804067373276,
6.375,-0.11873622983694077,
6.3775000000000004,-0.11938532441854477,
6.3799999999999999,-0.11996229737997055,
6.3825000000000003,-0.12041907012462616,
6.3849999999999998,-0.120755635201931,
6.3875000000000002,-0.12061139196157455,
6.3899999999999997,-0.12027482688426971,
6.3925000000000001,-0.11972188949584961,
6.3949999999999996,-0.11813521385192871,
6.3975,-0.11717359721660614,
6.4000000000000004,-0.11613985151052475,
6.4024999999999999,-0.11508207023143768,
6.4050000000000002,-0.11303862184286118,
6.4074999999999998,-0.11210104078054428,
6.4100000000000001,-0.11125962436199188,
6.4124999999999996,-0.11051436513662338,
6.415,-0.10955274105072021,
6.4175000000000004,-0.10933637619018555,
6.4199999999999999,-0.10931234061717987,
6.4225000000000003,-0.10943254083395004,
6.4249999999999998,-0.10986527055501938,
6.4275000000000002,-0.10996143519878387,
6.4299999999999997,-0.10981719195842743,
6.4325000000000001,-0.1092882975935936,
6.4349999999999996,-0.10700444877147675,
6.4375,-0.10524948686361313,
6.4400000000000004,-0.10325412452220917,
6.4424999999999999,-0.10121067613363266,
6.4450000000000003,-0.097989246249198914,
6.4474999999999998,-0.097243987023830414,
6.4500000000000002,-0.09734015166759491,
6.4524999999999997,-0.098277732729911804,
6.4550000000000001,-0.10241270065307617,
6.4574999999999996,-0.10517736524343491,
6.46,-0.10799010843038559,
6.4625000000000004,-0.11053840816020966,
6.4649999999999999,-0.11361559480428696,
6.4675000000000002,-0.11380791664123535,
6.4699999999999998,-0.11299054324626923,
6.4725000000000001,-0.1113317459821701,
6.4749999999999996,-0.10618706792593002,
6.4775,-0.10327816009521484,
6.4800000000000004,-0.10053753852844238,
6.4824999999999999,-0.098205611109733582,
6.4850000000000003,-0.095344781875610352,
6.4874999999999998,-0.094839930534362793,
6.4900000000000002,-0.094863973557949066,
6.4924999999999997,-0.095248624682426453,
6.4950000000000001,-0.096234284341335297,
6.4974999999999996,-0.096498727798461914,
6.5,-0.096498727798461914,
6.5025000000000004,-0.096162162721157074,
6.5049999999999999,-0.094839930534362793,
6.5075000000000003,-0.094118714332580566,
6.5099999999999998,-0.093541741371154785,
6.5125000000000002,-0.093253254890441895,
6.5149999999999997,-0.093758106231689453,
6.5175000000000001,-0.09447932243347168,
6.5199999999999996,-0.095368824899196625,
6.5225,-0.096186205744743347,
6.5250000000000004,-0.096979543566703796,
6.5274999999999999,-0.096642971038818359,
6.5300000000000002,-0.095729433000087738,
6.5324999999999998,-0.094311043620109558,
6.5350000000000001,-0.090536676347255707,
6.5374999999999996,-0.088613435626029968,
6.54,-0.086978673934936523,
6.5425000000000004,-0.085800692439079285,
6.5449999999999999,-0.08524775505065918,
6.5475000000000003,-0.085800692439079285,
6.5499999999999998,-0.086786352097988129,
6.5525000000000002,-0.087988376617431641,
6.5549999999999997,-0.090224146842956543,
6.5575000000000001,-0.09094536304473877,
6.5599999999999996,-0.091257892549037933,
6.5625,-0.091161727905273438,
6.5650000000000004,-0.090031825006008148,
6.5674999999999999,-0.08919040858745575,
6.5700000000000003,-0.088300906121730804,
6.5724999999999998,-0.087435446679592133,
6.5750000000000002,-0.085872814059257507,
6.5774999999999997,-0.085055433213710785,
6.5800000000000001,-0.08411785215139389,
6.5824999999999996,-0.082987949252128601,
6.585,-0.07995884120464325,
6.5875000000000004,-0.07808367908000946,
6.5899999999999999,-0.076088309288024902,
6.5925000000000002,-0.074116989970207214,
6.5949999999999998,-0.070847474038600922,
6.5975000000000001,-0.069837771356105804,
6.5999999999999996,-0.069332920014858246,
6.6025,-0.069332920014858246,
6.6050000000000004,-0.070510908961296082,
6.6074999999999999,-0.071376368403434753,
6.6100000000000003,-0.072193741798400879,
6.6124999999999998,-0.072746679186820984,
6.6150000000000002,-0.072626471519470215,
6.6174999999999997,-0.071736976504325867,
6.6200000000000001,-0.070246458053588867,
6.6224999999999996,-0.068178974092006683,
6.625,-0.062337122857570648,
6.6275000000000004,-0.05863487720489502,
6.6299999999999999,-0.054499905556440353,
6.6325000000000003,-0.049956243485212326,
6.6349999999999998,-0.040219824761152267,
6.6375000000000002,-0.035339593887329102,
6.6399999999999997,-0.030795931816101074,
6.6425000000000001,-0.026853283867239952,
6.6449999999999996,-0.021876892074942589,
6.6475,-0.021323960274457932,
6.6500000000000004,-0.022213459014892578,
6.6524999999999999,-0.024569433182477951,
6.6550000000000002,-0.033079784363508224,
6.6574999999999998,-0.038729310035705566,
6.6600000000000001,-0.044859647750854492,
6.6624999999999996,-0.051182311028242111,
6.665,-0.063274703919887543,
6.6675000000000004,-0.068683825433254242,
6.6699999999999999,-0.073612138628959656,
6.6725000000000003,-0.07808367908000946,
6.6749999999999998,-0.085920892655849457,
6.6775000000000002,-0.089430809020996094,
6.6799999999999997,-0.092604160308837891,
6.6825000000000001,-0.095320746302604675,
6.6849999999999996,-0.098590254783630371,
6.6875,-0.098614297807216644,
6.6900000000000004,-0.097243987023830414,
6.6924999999999999,-0.094407200813293457,
6.6950000000000003,-0.085127554833889008,
6.6974999999999998,-0.079646311700344086,
6.7000000000000002,-0.074645876884460449,
6.7024999999999997,-0.071184039115905762,
6.7050000000000001,-0.07317940890789032,
6.7074999999999996,-0.080535814166069031,
6.71,-0.092964768409729004,
6.7125000000000004,-0.11056244373321533,
6.7149999999999999,-0.15900413691997528,
6.7175000000000002,-0.18732389807701111,
6.7199999999999998,-0.21578788757324219,
6.7225000000000001,-0.24196803569793701,
6.7249999999999996,-0.2761056125164032,
6.7275,-0.27812501788139343,
6.7300000000000004,-0.26629707217216492,
6.7324999999999999,-0.23812155425548553,
6.7350000000000003,-0.12592434883117676,
6.7374999999999998,-0.040772758424282074,
6.7400000000000002,0.062505409121513367,
6.7424999999999997,0.18121759593486786,
6.7450000000000001,0.44650495052337646,
6.7474999999999996,0.58048290014266968,
6.75,0.70530140399932861,
6.7525000000000004,0.81300300359725952,
6.7549999999999999,0.94827914237976074,
6.7575000000000003,0.96515560150146484,
6.7599999999999998,0.94472110271453857,
6.7625000000000002,0.88776910305023193,
6.7649999999999997,0.68111658096313477,
6.7675000000000001,0.54552793502807617,
6.7699999999999996,0.40025097131729126,
6.7725,0.25478166341781616,
6.7750000000000004,-0.0032214324455708265,
6.7774999999999999,-0.10323008149862289,
6.7800000000000002,-0.17927031219005585,
6.7824999999999998,-0.23093342781066895,
6.7850000000000001,-0.25985419750213623,
6.7874999999999996,-0.2638930082321167,
6.79,-0.24817049503326416,
6.7925000000000004,-0.22682249546051025,
6.7949999999999999,-0.18186669051647186,
6.7975000000000003,-0.16311506927013397,
6.7999999999999998,-0.148354172706604,
6.8025000000000002,-0.13753592967987061,
6.8049999999999997,-0.12503485381603241,
6.8075000000000001,-0.12142877280712128,
6.8099999999999996,-0.11835157871246338,
6.8125,-0.11517822742462158,
6.8150000000000004,-0.10729293525218964,
6.8174999999999999,-0.10260502994060516,
6.8200000000000003,-0.09767671674489975,
6.8224999999999998,-0.092820525169372559,
6.8250000000000002,-0.084189973771572113,
6.8274999999999997,-0.08063197135925293,
6.8300000000000001,-0.077530741691589355,
6.8324999999999996,-0.074814163148403168,
6.835,-0.072289906442165375,
6.8375000000000004,-0.067049071192741394,
6.8399999999999999,-0.064068041741847992,
6.8425000000000002,-0.060774486511945724,
6.8449999999999998,-0.053466163575649261,
6.8475000000000001,-0.04969179630279541,
6.8499999999999996,-0.046061675995588303,
6.8525,-0.042792163789272308,
6.8550000000000004,-0.037887893617153168,
6.8574999999999999,-0.036397378891706467,
6.8600000000000003,-0.035483837127685547,
6.8624999999999998,-0.035075150430202484,
6.8650000000000002,-0.034906864166259766,
6.8674999999999997,-0.034690499305725098,
6.8700000000000001,-0.034089487046003342,
6.8724999999999996,-0.032935541123151779,
6.875,-0.028560161590576172,
6.8775000000000004,-0.0253627710044384,
6.8799999999999999,-0.021564364433288574,
6.8825000000000003,-0.017333230003714561,
6.8849999999999998,-0.0081257028505206108,
6.8875000000000002,-0.0034137568436563015,
6.8899999999999997,0.0012260675430297852,
6.8925000000000001,0.0057456893846392632,
6.8949999999999996,0.014472405426204205,
6.8975,0.018727581948041916,
6.9000000000000004,0.022934675216674805,
6.9024999999999999,0.027117729187011719,
6.9050000000000002,0.035531919449567795,
6.9074999999999998,0.039763055741786957,
6.9100000000000001,0.043970149010419846,
6.9124999999999996,0.048225324600934982,
6.915,0.052552621811628342,
6.9175000000000004,0.061904393136501312,
6.9199999999999999,0.067145228385925293,
6.9225000000000003,0.072939001023769379,
6.9249999999999998,0.086642108857631683,
6.9275000000000002,0.094551444053649902,
6.9299999999999997,0.10308583825826645,
6.9325000000000001,0.11207699775695801,
6.9349999999999996,0.13034781813621521,
6.9375,0.13907453417778015,
6.9400000000000004,0.14717619121074677,
6.9424999999999999,0.15448451042175293,
6.9450000000000003,0.16648074984550476,
6.9474999999999998,0.17133693397045135,
6.9500000000000002,0.17566423118114471,
6.9524999999999997,0.17970304191112518,
6.9550000000000001,0.1878046989440918,
6.9574999999999996,0.19215604662895203,
6.96,0.19667565822601318,
6.9625000000000004,0.20126740634441376,
6.9649999999999999,0.20968160033226013,
6.9675000000000002,0.21290302276611328,
6.9699999999999998,0.21504263579845428,
6.9725000000000001,0.21583597362041473,
6.9749999999999996,0.21290302276611328,
6.9775,0.2090565413236618,
6.9800000000000004,0.20371954143047333,
6.9824999999999999,0.1970362663269043,
6.9850000000000003,0.18020789325237274,
6.9874999999999998,0.17037531733512878,
6.9900000000000002,0.15974938869476318,
6.9924999999999997,0.1484503448009491,
6.9950000000000001,0.13655027747154236,
6.9974999999999996,0.11116345971822739,
7,0.097796916961669922,73.043479919433594
7.0025000000000004,0.084141895174980164,
7.0049999999999999,0.056206785142421722,
7.0075000000000003,0.042215190827846527,
7.0099999999999998,0.028391879051923752,
7.0125000000000002,0.014881094917654991,
7.0149999999999997,-0.01060187816619873,
7.0175000000000001,-0.022309621796011925,
7.0199999999999996,-0.033151905983686447,
7.0225,-0.043032567948102951,
7.0250000000000004,-0.059644579887390137,
7.0274999999999999,-0.066351890563964844,
7.0300000000000002,-0.072001419961452484,
7.0324999999999998,-0.076689325273036957,
7.0350000000000001,-0.08378128707408905,
7.0374999999999996,-0.086545944213867188,
7.04,-0.089046165347099304,
7.0425000000000004,-0.091522336006164551,
7.0449999999999999,-0.096859335899353027,
7.0475000000000003,-0.099840365350246429,
7.0499999999999998,-0.10301371663808823,
7.0525000000000002,-0.10618706792593002,
7.0549999999999997,-0.11188467592000961,
7.0575000000000001,-0.1139521598815918,
7.0599999999999996,-0.1152503490447998,
7.0625,-0.11568307876586914,
7.0650000000000004,-0.11402428150177002,
7.0674999999999999,-0.11222124099731445,
7.0700000000000003,-0.11005759239196777,
7.0724999999999998,-0.10784586519002914,
7.0750000000000002,-0.10431190580129623,
7.0774999999999997,-0.10342240333557129,
7.0800000000000001,-0.10325412452220917,
7.0824999999999996,-0.10380705446004868,
7.085,-0.10654767602682114,
7.0875000000000004,-0.10832667350769043,
7.0899999999999999,-0.11010567843914032,
7.0925000000000002,-0.11164426803588867,
7.0949999999999998,-0.11344730854034424,
7.0975000000000001,-0.11356751620769501,
7.0999999999999996,-0.11320690810680389,
7.1025,-0.11243760585784912,
7.1050000000000004,-0.11020183563232422,
7.1074999999999999,-0.10902385413646698,
7.1100000000000003,-0.10794202983379364,
7.1124999999999998,-0.10710060596466064,
7.1150000000000002,-0.1062111109495163,
7.1174999999999997,-0.10616302490234375,
7.1200000000000001,-0.1063072681427002,
7.1224999999999996,-0.10661979764699936,
7.125,-0.10726889222860336,
7.1275000000000004,-0.1075093001127243,
7.1299999999999999,-0.1076054573059082,
7.1325000000000003,-0.10753333568572998,
7.1349999999999998,-0.10690828412771225,
7.1375000000000002,-0.10637938976287842,
7.1399999999999997,-0.10570625960826874,
7.1425000000000001,-0.10493695735931396,
7.1449999999999996,-0.10294159501791,
7.1475,-0.10171552747488022,
7.1500000000000004,-0.10032117366790771,
7.1524999999999999,-0.098782584071159363,
7.1550000000000002,-0.095344781875610352,
7.1574999999999998,-0.093613862991333008,
7.1600000000000001,-0.092027187347412109,
7.1624999999999996,-0.090680919587612152,
7.165,-0.08907020092010498,
7.1675000000000004,-0.088925957679748535,
7.1699999999999999,-0.08919040858745575,
7.1725000000000003,-0.08981546014547348,
7.1749999999999998,-0.09164254367351532,
7.1775000000000002,-0.092532038688659668,
7.1799999999999997,-0.093229219317436218,
7.1825000000000001,-0.093565784394741058,
7.1849999999999996,-0.092844568192958832,
7.1875,-0.091690622270107269,
7.1900000000000004,-0.090079903602600098,
7.1924999999999999,-0.088036462664604187,
7.1950000000000003,-0.083228349685668945,
7.1974999999999998,-0.080824300646781921,
7.2000000000000002,-0.078636609017848969,
7.2024999999999997,-0.076857611536979675,
7.2050000000000001,-0.075174771249294281,
7.2074999999999996,-0.075367093086242676,
7.21,-0.076232552528381348,
7.2125000000000004,-0.077578827738761902,
7.2149999999999999,-0.080944500863552094,
7.2175000000000002,-0.082386933267116547,
7.2199999999999998,-0.083324514329433441,
7.2225000000000001,-0.083588957786560059,
7.2249999999999996,-0.081809960305690765,
7.2275,-0.07995884120464325,
7.2300000000000004,-0.077771149575710297,
7.2324999999999999,-0.075511336326599121,
7.2350000000000003,-0.072073541581630707,
7.2374999999999998,-0.07135232537984848,
7.2400000000000002,-0.071448490023612976,
7.2424999999999997,-0.072337985038757324,
7.2450000000000001,-0.07567962259054184,
7.2474999999999996,-0.077626906335353851,
7.25,-0.079381868243217468,
7.2525000000000004,-0.080680057406425476,
7.2549999999999999,-0.081353187561035156,
7.2575000000000003,-0.080704092979431152,
7.2599999999999998,-0.07955014705657959,
7.2625000000000002,-0.078059636056423187,
7.2649999999999997,-0.074838206171989441,
7.2675000000000001,-0.07346789538860321,
7.2699999999999996,-0.072386071085929871,
7.2725,-0.071616768836975098,
7.2750000000000004,-0.070895552635192871,
7.2774999999999999,-0.070775352418422699,
7.2800000000000002,-0.070751309394836426,
7.2824999999999998,-0.070751309394836426,
7.2850000000000001,-0.070751309394836426,
7.2874999999999996,-0.070823431015014648,
7.29,-0.070967674255371094,
7.2925000000000004,-0.071208082139492035,
7.2949999999999999,-0.072025462985038757,
7.2975000000000003,-0.072506271302700043,
7.2999999999999998,-0.072914958000183105,
7.3025000000000002,-0.073203444480895996,
7.3049999999999997,-0.073131322860717773,
7.3075000000000001,-0.072746679186820984,
7.3099999999999996,-0.072121620178222656,
7.3125,-0.07135232537984848,
7.3150000000000004,-0.069741606712341309,
7.3174999999999999,-0.069140598177909851,
7.3200000000000003,-0.068755947053432465,
7.3224999999999998,-0.068659782409667969,
7.3250000000000002,-0.069260798394680023,
7.3274999999999997,-0.069861814379692078,
7.3300000000000001,-0.070510908961296082,
7.3324999999999996,-0.071111917495727539,
7.335,-0.07168889045715332,
7.3375000000000004,-0.071496568620204926,
7.3399999999999999,-0.070991717278957367,
7.3425000000000002,-0.070198379456996918,
7.3449999999999998,-0.068082809448242188,
7.3475000000000001,-0.06707310676574707,
7.3499999999999996,-0.066231690347194672,
7.3525,-0.06570279598236084,
7.3550000000000004,-0.065774917602539062,
7.3574999999999999,-0.066255733370780945,
7.3600000000000003,-0.066928863525390625,
7.3624999999999998,-0.067602001130580902,
7.3650000000000002,-0.068251095712184906,
7.3674999999999997,-0.067962609231472015,
7.3700000000000001,-0.067169271409511566,
7.3724999999999996,-0.065943203866481781,
7.375,-0.062769852578639984,
7.3775000000000004,-0.061231255531311035,
7.3799999999999999,-0.060077309608459473,
7.3825000000000003,-0.059452258050441742,
7.3849999999999998,-0.060173474252223969,
7.3875000000000002,-0.061447620391845703,
7.3899999999999997,-0.063106417655944824,
7.3925000000000001,-0.064909458160400391,
7.3949999999999996,-0.067842409014701843,
7.3975,-0.068515539169311523,
7.4000000000000004,-0.068515539169311523,
7.4024999999999999,-0.067842409014701843,
7.4050000000000002,-0.064981579780578613,
7.4074999999999998,-0.06325066089630127,
7.4100000000000001,-0.061615906655788422,
7.4124999999999996,-0.060341756790876389,
7.415,-0.059163771569728851,
7.4175000000000004,-0.059235893189907074,
7.4199999999999999,-0.059572458267211914,
7.4225000000000003,-0.059957109391689301,
7.4249999999999998,-0.059740744531154633,
7.4275000000000002,-0.05875508114695549,
7.4299999999999997,-0.057000122964382172,
7.4325000000000001,-0.054475866258144379,
7.4349999999999996,-0.047744512557983398,
7.4375,-0.04399418830871582,
7.4400000000000004,-0.040388107299804688,
7.4424999999999999,-0.037238799035549164,
7.4450000000000003,-0.033320188522338867,
7.4474999999999998,-0.032791297882795334,
7.4500000000000002,-0.033199988305568695,
7.4524999999999997,-0.03442605584859848,
7.4550000000000001,-0.038224458694458008,
7.4574999999999996,-0.040147703140974045,
7.46,-0.041638217866420746,
7.4625000000000004,-0.042407512664794922,
7.4649999999999999,-0.040989123284816742,
7.4675000000000002,-0.038657188415527344,
7.4699999999999998,-0.035315554589033127,
7.4725000000000001,-0.031156539916992188,
7.4749999999999996,-0.021251838654279709,
7.4775,-0.016059082001447678,
7.4800000000000004,-0.011106729507446289,
7.4824999999999999,-0.006611148826777935,
7.4850000000000003,0.00024040541029535234,
7.4874999999999998,0.002307891845703125,
7.4900000000000002,0.0033656756859272718,
7.4924999999999997,0.0033416352234780788,
7.4950000000000001,0.00014424324035644531,
7.4974999999999996,-0.0029810271225869656,
7.5,-0.0069957971572875977,
7.5025000000000004,-0.011803905479609966,
7.5049999999999999,-0.023054879158735275,
7.5075000000000003,-0.029089054092764854,
7.5099999999999998,-0.035123229026794434,
7.5125000000000002,-0.040941040962934494,
7.5149999999999997,-0.051398675888776779,
7.5175000000000001,-0.055894255638122559,
7.5199999999999996,-0.059909027069807053,
7.5225,-0.063467025756835938,
7.5250000000000004,-0.069501206278800964,
7.5274999999999999,-0.072001419961452484,
7.5300000000000002,-0.074044868350028992,
7.5324999999999998,-0.075463257730007172,
7.5350000000000001,-0.075559422373771667,
7.5374999999999996,-0.073804460465908051,
7.54,-0.070775352418422699,
7.5425000000000004,-0.066616341471672058,
7.5449999999999999,-0.056711636483669281,
7.5475000000000003,-0.052576661109924316,
7.5499999999999998,-0.050364933907985687,
7.5525000000000002,-0.051206350326538086,
7.5549999999999997,-0.065895125269889832,
7.5575000000000001,-0.080896422266960144,
7.5599999999999996,-0.10094623267650604,
7.5625,-0.12527525424957275,
7.5650000000000004,-0.18049637973308563,
7.5674999999999999,-0.20686885714530945,
7.5700000000000003,-0.22862553596496582,
7.5724999999999998,-0.24264118075370789,
7.5750000000000002,-0.23490011692047119,
7.5774999999999997,-0.2075660228729248,
7.5800000000000001,-0.16181688010692596,
7.5824999999999996,-0.096691057085990906,
7.585,0.089767381548881531,
7.5875000000000004,0.20653228461742401,
7.5899999999999999,0.33346635103225708,
7.5925000000000002,0.46463152766227722,
7.5949999999999998,0.71071052551269531,
7.5975000000000001,0.81002199649810791,
7.5999999999999996,0.88373029232025146,
7.6025,0.92592144012451172,
7.6050000000000004,0.90279442071914673,
7.6074999999999999,0.83747625350952148,
7.6100000000000003,0.74097752571105957,
7.6124999999999998,0.61983728408813477,
7.6150000000000002,0.33820232748985291,
7.6174999999999997,0.19645929336547852,
7.6200000000000001,0.065823003649711609,
7.6224999999999996,-0.046855013817548752,
7.625,-0.20208477973937988,
7.6275000000000004,-0.24271330237388611,
7.6299999999999999,-0.26112836599349976,
7.6325000000000003,-0.26132068037986755,
7.6349999999999998,-0.22663018107414246,
7.6375000000000002,-0.20153185725212097,
7.6399999999999997,-0.17667393386363983,
7.6425000000000001,-0.1547008752822876,
7.6449999999999996,-0.12440979480743408,
7.6475,-0.1159956082701683,
7.6500000000000004,-0.11089901626110077,
7.6524999999999999,-0.10784586519002914,
7.6550000000000002,-0.10327816009521484,
7.6574999999999998,-0.10017693042755127,
7.6600000000000001,-0.096114084124565125,
7.6624999999999996,-0.091137692332267761,
7.665,-0.079814597964286804,
7.6675000000000004,-0.074285268783569336,
7.6699999999999999,-0.069260798394680023,
7.6725000000000003,-0.064933501183986664,
7.6749999999999998,-0.058394473046064377,
7.6775000000000002,-0.055894255638122559,
7.6799999999999997,-0.053658485412597656,
7.6825000000000001,-0.051446758210659027,
7.6849999999999996,-0.046566527336835861,
7.6875,-0.043801866471767426,
7.6900000000000004,-0.040868919342756271,
7.6924999999999999,-0.03783981129527092,
7.6950000000000003,-0.03197392076253891,
7.6974999999999998,-0.029353499412536621,
7.7000000000000002,-0.027021568268537521,
7.7024999999999997,-0.025002162903547287,
7.7050000000000001,-0.021756689995527267,
7.7074999999999996,-0.020338296890258789,
7.71,-0.01891990564763546,
7.7125000000000004,-0.017405351623892784,
7.7149999999999999,-0.013751189224421978,
7.7175000000000002,-0.011563500389456749,
7.7199999999999998,-0.009135405533015728,
7.7225000000000001,-0.0065630674362182617,
7.7249999999999996,-0.0012741487007588148,
7.7275,0.0012981891632080078,
7.7300000000000004,0.0037503242492675781,
7.7324999999999999,0.0060822567902505398,
7.7350000000000003,0.010625919327139854,
7.7374999999999998,0.012981891632080078,
