Data Set 1:Time(s),Data Set 1:EKG(mV),Data Set 1:Heart Rate(bpm),Data Set 2:Time(s),Data Set 2:EKG(mV),Data Set 2:Heart Rate(bpm)
0,-0.090416476130485535,59.642143249511719,0,-0.22715906798839569,84
0.0025000000000000001,-0.092892646789550781,,0.0025000000000000001,-0.23766478896141052,
0.0050000000000000001,-0.095801554620265961,,0.0050000000000000001,-0.24706463515758514,
0.0074999999999999997,-0.099143192172050476,,0.0074999999999999997,-0.25492590665817261,
0.01,-0.10274927318096161,,0.01,-0.26098412275314331,
0.012500000000000001,-0.1063072681427002,,0.012500000000000001,-0.26507100462913513,
0.014999999999999999,-0.11275013536214828,,0.014999999999999999,-0.26713848114013672,
0.017500000000000002,-0.1121731624007225,,0.017500000000000002,-0.26535949110984802,
0.02,-0.10996143519878387,,0.02,-0.25800308585166931,
0.022499999999999999,-0.10157128423452377,,0.022499999999999999,-0.25355559587478638,
0.025000000000000001,-0.096498727798461914,,0.025000000000000001,-0.24946868419647217,
0.0275,-0.09193103015422821,,0.0275,-0.24641554057598114,
0.029999999999999999,-0.088685557246208191,,0.029999999999999999,-0.24538180232048035,
0.032500000000000001,-0.089022122323513031,,0.032500000000000001,-0.24785797297954559,
0.035000000000000003,-0.093229219317436218,,0.035000000000000003,-0.25218528509140015,
0.037499999999999999,-0.099912486970424652,,0.037499999999999999,-0.25797903537750244,
0.040000000000000001,-0.10839879512786865,,0.040000000000000001,-0.27148982882499695,
0.042500000000000003,-0.12626092135906219,,0.042500000000000003,-0.27790865302085876,
0.044999999999999998,-0.1330643892288208,,0.044999999999999998,-0.28334182500839233,
0.047500000000000001,-0.13686279952526093,,0.047500000000000001,-0.28745275735855103,
0.050000000000000003,-0.13686279952526093,,0.050000000000000003,-0.29151558876037598,
0.052499999999999998,-0.12445788085460663,,0.052499999999999998,-0.29185217618942261,
0.055,-0.11296650022268295,,0.055,-0.29153963923454285,
0.057500000000000002,-0.099311470985412598,,0.057500000000000002,-0.2909386157989502,
0.059999999999999998,-0.084935232996940613,,0.059999999999999998,-0.29026550054550171,
0.0625,-0.059620540589094162,,0.0625,-0.29060205817222595,
0.065000000000000002,-0.050989985466003418,,0.065000000000000002,-0.29153963923454285,
0.067500000000000004,-0.045893393456935883,,0.067500000000000004,-0.29307824373245239,
0.070000000000000007,-0.044426918029785156,,0.070000000000000007,-0.29815077781677246,
0.072499999999999995,-0.050292812287807465,,0.072499999999999995,-0.30180495977401733,
0.074999999999999997,-0.055942337960004807,,0.074999999999999997,-0.3062283992767334,
0.077499999999999999,-0.062192879617214203,,0.077499999999999999,-0.31146925687789917,
0.080000000000000002,-0.068227052688598633,,0.080000000000000002,-0.32382607460021973,
0.082500000000000004,-0.077915392816066742,,0.082500000000000004,-0.33026894927024841,
0.085000000000000006,-0.081425309181213379,,0.085000000000000006,-0.33618292212486267,
0.087499999999999994,-0.084334217011928558,,0.087499999999999994,-0.34094294905662537,
0.089999999999999997,-0.08702675998210907,,0.089999999999999997,-0.34445285797119141,
0.092499999999999999,-0.093036890029907227,,0.092499999999999999,-0.34238538146018982,
0.095000000000000001,-0.096618935465812683,,0.095000000000000001,-0.33767342567443848,
0.097500000000000003,-0.10048945993185043,,0.097500000000000003,-0.3306536078453064,
0.10000000000000001,-0.10428786277770996,,0.10000000000000001,-0.31257510185241699,
0.10249999999999999,-0.1100335568189621,,0.10249999999999999,-0.30336758494377136,
0.105,-0.11125962436199188,,0.105,-0.29526591300964355,
0.1075,-0.11106729507446289,,0.1075,-0.2889673113822937,
0.11,-0.10952870547771454,,0.11,-0.28295716643333435,
0.1125,-0.10323008149862289,,0.1125,-0.28286099433898926,
0.115,-0.099311470985412598,,0.115,-0.28396686911582947,
0.11749999999999999,-0.095464989542961121,,0.11749999999999999,-0.28545737266540527,
0.12,-0.092099308967590332,,0.12,-0.28670749068260193,
0.1225,-0.087603732943534851,,0.1225,-0.28550547361373901,
0.125,-0.086449787020683289,,0.125,-0.282909095287323,
0.1275,-0.085752606391906738,,0.1275,-0.279278963804245,
0.13,-0.085103511810302734,,0.13,-0.27115327119827271,
0.13250000000000001,-0.084045730531215668,,0.13250000000000001,-0.26807606220245361,
0.13500000000000001,-0.078949138522148132,,0.13500000000000001,-0.26644131541252136,
0.13750000000000001,-0.074213147163391113,,0.13750000000000001,-0.26658555865287781,
0.14000000000000001,-0.067842409014701843,,0.14000000000000001,-0.27197062969207764,
0.14249999999999999,-0.050701498985290527,,0.14249999999999999,-0.27641814947128296,
0.14499999999999999,-0.040700636804103851,,0.14499999999999999,-0.28120219707489014,
0.14749999999999999,-0.030459364876151085,,0.14749999999999999,-0.28555354475975037,
0.14999999999999999,-0.02062678337097168,,0.14999999999999999,-0.29060205817222595,
0.1525,-0.0048802299425005913,,0.1525,-0.29050588607788086,
0.155,0,,0.155,-0.28855860233306885,
0.1575,0.0024280946236103773,,0.1575,-0.28497657179832458,
0.16,0.0023559730034321547,,0.16,-0.27449488639831543,
0.16250000000000001,-0.0048081083223223686,,0.16250000000000001,-0.26862901449203491,
0.16500000000000001,-0.011154810898005962,,0.16500000000000001,-0.26297947764396667,
0.16750000000000001,-0.018751621246337891,,0.16750000000000001,-0.25797903537750244,
0.17000000000000001,-0.02706964872777462,,0.17000000000000001,-0.25091111660003662,
0.17249999999999999,-0.043946109712123871,,0.17249999999999999,-0.24903595447540283,
0.17499999999999999,-0.051783323287963867,,0.17499999999999999,-0.24824261665344238,
0.17749999999999999,-0.058851242065429688,,0.17749999999999999,-0.2484109103679657,
0.17999999999999999,-0.065053701400756836,,0.17999999999999999,-0.25115153193473816,
0.1825,-0.074645876884460449,,0.1825,-0.25341135263442993,
0.185,-0.07813175767660141,,0.185,-0.25607985258102417,
0.1875,-0.080800257623195648,,0.1875,-0.25901278853416443,
0.19,-0.082795619964599609,,0.19,-0.26521524786949158,
0.1925,-0.084983311593532562,,0.1925,-0.26824435591697693,
0.19500000000000001,-0.085271798074245453,,0.19500000000000001,-0.27108114957809448,
0.19750000000000001,-0.085031390190124512,,0.19750000000000001,-0.27358135581016541,
0.20000000000000001,-0.084262095391750336,,0.20000000000000001,-0.27728360891342163,
0.20250000000000001,-0.080872379243373871,,0.20250000000000001,-0.27831733226776123,
0.20499999999999999,-0.078227922320365906,,0.20499999999999999,-0.27877411246299744,
0.20749999999999999,-0.075006484985351562,,0.20749999999999999,-0.27867794036865234,
0.20999999999999999,-0.071424447000026703,,0.20999999999999999,-0.27692300081253052,
0.21249999999999999,-0.064548850059509277,,0.21249999999999999,-0.27550458908081055,
0.215,-0.062409244477748871,,0.215,-0.27389389276504517,
0.2175,-0.06200055405497551,,0.2175,-0.27223509550094604,
0.22,-0.064140163362026215,,0.22,-0.26951849460601807,
0.2225,-0.078756809234619141,,0.2225,-0.26874920725822449,
0.22500000000000001,-0.092147395014762878,,0.22500000000000001,-0.26855689287185669,
0.22750000000000001,-0.10974507033824921,,0.22750000000000001,-0.26901364326477051,
0.23000000000000001,-0.13126134872436523,,0.23000000000000001,-0.27197062969207764,
0.23250000000000001,-0.18261194229125977,,0.23250000000000001,-0.27435064315795898,
0.23499999999999999,-0.20965754985809326,,0.23499999999999999,-0.27721148729324341,
0.23749999999999999,-0.23511648178100586,,0.23749999999999999,-0.28040885925292969,
0.23999999999999999,-0.25656065344810486,,0.23999999999999999,-0.28711616992950439,
0.24249999999999999,-0.27658641338348389,,0.24249999999999999,-0.29021739959716797,
0.245,-0.26935023069381714,,0.245,-0.29288589954376221,
0.2475,-0.2469203919172287,,0.2475,-0.29497742652893066,
0.25,-0.20706117153167725,,0.25,-0.29675644636154175,
0.2525,-0.14823397994041443,,0.2525,-0.29622754454612732,
0.255,0.026228230446577072,,0.255,-0.29471299052238464,
0.25750000000000001,0.13813695311546326,,0.25750000000000001,-0.29230892658233643,
0.26000000000000001,0.26112836599349976,,0.26000000000000001,-0.28548142313957214,
0.26250000000000001,0.5149003267288208,,0.26250000000000001,-0.28161090612411499,
0.26500000000000001,0.63007855415344238,,0.26500000000000001,-0.27790865302085876,
0.26750000000000002,0.72648108005523682,,0.26750000000000002,-0.27478337287902832,
0.27000000000000002,0.79653525352478027,,0.27000000000000002,-0.27165812253952026,
0.27250000000000002,0.83567321300506592,,0.27250000000000002,-0.2721869945526123,
0.27500000000000002,0.79985284805297852,,0.27500000000000002,-0.27430257201194763,
0.27750000000000002,0.72866880893707275,,0.27750000000000002,-0.27798077464103699,
0.28000000000000003,0.62678498029708862,,0.28000000000000003,-0.28937599062919617,
0.28249999999999997,0.36125719547271729,,0.28249999999999997,-0.29656410217285156,
0.28499999999999998,0.21602830290794373,,0.28499999999999998,-0.3042570948600769,
0.28749999999999998,0.075150728225708008,,0.28749999999999998,-0.31214237213134766,
0.28999999999999998,-0.053105555474758148,,0.28999999999999998,-0.32726389169692993,
0.29249999999999998,-0.24814645946025848,,0.29249999999999998,-0.33409139513969421,
0.29499999999999998,-0.30918538570404053,,0.29499999999999998,-0.34024578332901001,
0.29749999999999999,-0.34615975618362427,,0.29749999999999999,-0.34570297598838806,
0.29999999999999999,-0.36181014776229858,,0.29999999999999999,-0.35483837127685547,
0.30249999999999999,-0.34640014171600342,,0.30249999999999999,-0.35866081714630127,
0.30499999999999999,-0.32522043585777283,,0.30499999999999999,-0.3621707558631897,
0.3075,-0.30110776424407959,,0.3075,-0.36541622877120972,
0.31,-0.2776922881603241,,0.31,-0.37116190791130066,
0.3125,-0.24136702716350555,,0.3125,-0.37351787090301514,
0.315,-0.23006796836853027,,0.315,-0.37539303302764893,
0.3175,-0.2229519784450531,,0.3175,-0.37654697895050049,
0.32000000000000001,-0.21903336048126221,,0.32000000000000001,-0.37613829970359802,
0.32250000000000001,-0.21619658172130585,,0.32250000000000001,-0.37443143129348755,
0.32500000000000001,-0.21523496508598328,,0.32500000000000001,-0.37185907363891602,
0.32750000000000001,-0.21369636058807373,,0.32750000000000001,-0.36878189444541931,
0.33000000000000002,-0.21126827597618103,,0.33000000000000002,-0.36363720893859863,
0.33250000000000002,-0.20398399233818054,,0.33250000000000002,-0.36325258016586304,
0.33500000000000002,-0.19960860908031464,,0.33500000000000002,-0.36556047201156616,
0.33750000000000002,-0.19518515467643738,,0.33750000000000002,-0.37147444486618042,
0.34000000000000002,-0.19100210070610046,,0.34000000000000002,-0.39640447497367859,
0.34250000000000003,-0.18417458236217499,,0.34250000000000003,-0.41566094756126404,
0.34499999999999997,-0.18169841170310974,,0.34499999999999997,-0.43878793716430664,
0.34749999999999998,-0.1798713207244873,,0.34749999999999998,-0.46463152766227722,
0.34999999999999998,-0.17862121760845184,,0.34999999999999998,-0.51716011762619019,
0.35249999999999998,-0.17734706401824951,,0.35249999999999998,-0.53927743434906006,
0.35499999999999998,-0.17705857753753662,,0.35499999999999998,-0.55514419078826904,
0.35749999999999998,-0.1767941415309906,,0.35749999999999998,-0.56201976537704468,
0.35999999999999999,-0.17643353343009949,,0.35999999999999999,-0.53858023881912231,
0.36249999999999999,-0.17484685778617859,,0.36249999999999999,-0.50410610437393188,
0.36499999999999999,-0.17340442538261414,,0.36499999999999999,-0.45263528823852539,
0.36749999999999999,-0.1714811772108078,,0.36749999999999999,-0.38383126258850098,
0.37,-0.16905307769775391,,0.37,-0.19807001948356628,
0.3725,-0.16282658278942108,,0.3725,-0.086209379136562347,
0.375,-0.1592685878276825,,0.375,0.032719176262617111,
0.3775,-0.15559038519859314,,0.3775,0.15304207801818848,
0.38,-0.15196025371551514,,0.38,0.37096959352493286,
0.38250000000000001,-0.14549335837364197,,0.38250000000000001,0.45446237921714783,
0.38500000000000001,-0.14289698004722595,,0.38500000000000001,0.51240009069442749,
0.38750000000000001,-0.14082948863506317,,0.38750000000000001,0.53985440731048584,
0.39000000000000001,-0.13926684856414795,,0.39000000000000001,0.49432158470153809,
0.39250000000000002,-0.13746380805969238,,0.39250000000000002,0.42294523119926453,
0.39500000000000002,-0.13695895671844482,,0.39500000000000002,0.3244992196559906,
0.39750000000000002,-0.13645410537719727,,0.39750000000000002,0.20576298236846924,
0.40000000000000002,-0.13578097522258759,,0.40000000000000002,-0.059019528329372406,
0.40250000000000002,-0.13330480456352234,,0.40250000000000002,-0.18749217689037323,
0.40500000000000003,-0.13123731315135956,,0.40500000000000003,-0.30288678407669067,
0.40749999999999997,-0.12854477763175964,,0.40749999999999997,-0.39938551187515259,
0.40999999999999998,-0.12525121867656708,,0.40999999999999998,-0.52401167154312134,
0.41249999999999998,-0.11702935397624969,,0.41249999999999998,-0.55209100246429443,
0.41499999999999998,-0.112269327044487,,0.41499999999999998,-0.56079369783401489,
0.41749999999999998,-0.10719677060842514,,0.41749999999999998,-0.55435085296630859,
0.41999999999999998,-0.10190784931182861,,0.41999999999999998,-0.51574170589447021,
0.42249999999999999,-0.090849205851554871,,0.42249999999999999,-0.49261471629142761,
0.42499999999999999,-0.085175633430480957,,0.42499999999999999,-0.4715552031993866,
0.42749999999999999,-0.079405903816223145,,0.42749999999999999,-0.45455855131149292,
0.42999999999999999,-0.073612138628959656,,0.42999999999999999,-0.43491742014884949,
0.4325,-0.06200055405497551,,0.4325,-0.43104690313339233,
0.435,-0.05630294606089592,,0.435,-0.42948424816131592,
0.4375,-0.050797663629055023,,0.4375,-0.42883515357971191,
0.44,-0.045508742332458496,,0.44,-0.42573392391204834,
0.4425,-0.035700201988220215,,0.4425,-0.42210382223129272,
0.44500000000000001,-0.031108459457755089,,0.44500000000000001,-0.41703125834465027,
0.44750000000000001,-0.02661287784576416,,0.44750000000000001,-0.41087687015533447,
0.45000000000000001,-0.022069215774536133,,0.45000000000000001,-0.3976064920425415,
0.45250000000000001,-0.012116432189941406,,0.45250000000000001,-0.39164444804191589,
0.45500000000000002,-0.0064669055864214897,,0.45500000000000002,-0.38666805624961853,
0.45750000000000002,-0.00028848648071289062,,0.45750000000000002,-0.38284561038017273,
0.46000000000000002,0.0064669055864214897,,0.46000000000000002,-0.37842214107513428,
0.46250000000000002,0.021107595413923264,,0.46250000000000002,-0.37731629610061646,
0.46500000000000002,0.028632283210754395,,0.46500000000000002,-0.37652295827865601,
0.46750000000000003,0.035964649170637131,,0.46750000000000003,-0.37570556998252869,
0.46999999999999997,0.042888324707746506,,0.46999999999999997,-0.37310919165611267,
0.47249999999999998,0.054668188095092773,,0.47249999999999998,-0.37111383676528931,
0.47499999999999998,0.059235893189907074,,0.47499999999999998,-0.36866170167922974,
0.47749999999999998,0.062841974198818207,,0.47749999999999998,-0.36587297916412354,
0.47999999999999998,0.065510474145412445,,0.47999999999999998,-0.35998305678367615,
0.48249999999999998,0.068082809448242188,,0.48249999999999998,-0.35729050636291504,
0.48499999999999999,0.068106852471828461,,0.48499999999999999,-0.35498261451721191,
0.48749999999999999,0.067289471626281738,,0.48749999999999999,-0.35315555334091187,
0.48999999999999999,0.06570279598236084,,0.48999999999999999,-0.35103997588157654,
0.49249999999999999,0.060077309608459473,,0.49249999999999999,-0.35058319568634033,
0.495,0.055942337960004807,,0.495,-0.35029470920562744,
0.4975,0.050821702927350998,,0.4975,-0.3499581515789032,
0.5,0.044667325913906097,,0.5,-0.3481791615486145,
0.50249999999999995,0.028944810852408409,,0.50249999999999995,-0.34637612104415894,
0.505,0.019304554909467697,,0.505,-0.34385186433792114,
0.50749999999999995,0.0084382295608520508,,0.50749999999999995,-0.34063041210174561,
0.51000000000000001,-0.0036060810089111328,,0.51000000000000001,-0.33255279064178467,
0.51249999999999996,-0.030988257378339767,,0.51249999999999996,-0.32815337181091309,
0.51500000000000001,-0.046013593673706055,,0.51500000000000001,-0.32382607460021973,
0.51749999999999996,-0.061688028275966644,,0.51749999999999996,-0.31981131434440613,
0.52000000000000002,-0.077699027955532074,,0.52000000000000002,-0.31336843967437744,
0.52249999999999996,-0.10967294871807098,,0.52249999999999996,-0.31103652715682983,
0.52500000000000002,-0.12503485381603241,,0.52500000000000002,-0.3092094361782074,
0.52749999999999997,-0.13965150713920593,,0.52749999999999997,-0.30769488215446472,
0.53000000000000003,-0.15330652892589569,,0.53000000000000003,-0.3046417236328125,
0.53249999999999997,-0.17717878520488739,,0.53249999999999997,-0.30257424712181091,
0.53500000000000003,-0.18732389807701111,,0.53500000000000003,-0.2998816967010498,
0.53749999999999998,-0.19631505012512207,,0.53749999999999998,-0.29641985893249512,
0.54000000000000004,-0.20422439277172089,,0.54000000000000004,-0.28718829154968262,
0.54249999999999998,-0.21735052764415741,,0.54249999999999998,-0.28163492679595947,
0.54500000000000004,-0.22278368473052979,,0.54500000000000004,-0.27569693326950073,
0.54749999999999999,-0.22763988375663757,,0.54749999999999999,-0.26959061622619629,
0.55000000000000004,-0.23201525211334229,,0.55000000000000004,-0.257834792137146,
0.55249999999999999,-0.23953995108604431,,0.55249999999999999,-0.25249779224395752,
0.55500000000000005,-0.24283349514007568,,0.55500000000000005,-0.24764160811901093,
0.5575,-0.24581453204154968,,0.5575,-0.2431941032409668,
0.56000000000000005,-0.24855515360832214,,0.56000000000000005,-0.23516456782817841,
0.5625,-0.25333923101425171,,0.5625,-0.23122191429138184,
0.56499999999999995,-0.2554067075252533,,0.56499999999999995,-0.22706291079521179,
0.5675,-0.25725781917572021,,0.5675,-0.22251924872398376,
0.56999999999999995,-0.25886854529380798,,0.56999999999999995,-0.21191737055778503,
0.57250000000000001,-0.26136875152587891,,0.57250000000000001,-0.20585915446281433,
0.57499999999999996,-0.2622101902961731,,0.57499999999999996,-0.19939224421977997,
0.57750000000000001,-0.26278716325759888,,0.57750000000000001,-0.19275705516338348,
0.57999999999999996,-0.26312372088432312,,0.57999999999999996,-0.17977516353130341,
0.58250000000000002,-0.26319584250450134,,0.58250000000000002,-0.17386119067668915,
0.58499999999999996,-0.26302754878997803,,0.58499999999999996,-0.16859631240367889,
0.58750000000000002,-0.26283523440361023,,0.58750000000000002,-0.16410073637962341,
0.58999999999999997,-0.26266694068908691,,0.58999999999999997,-0.1575857400894165,
0.59250000000000003,-0.26247462630271912,,0.59250000000000003,-0.15549421310424805,
0.59499999999999997,-0.26245057582855225,,0.59499999999999997,-0.15412390232086182,
0.59750000000000003,-0.26247462630271912,,0.59750000000000003,-0.15335461497306824,
0.59999999999999998,-0.26247462630271912,,0.59999999999999998,-0.15357097983360291,
0.60250000000000004,-0.26235443353652954,,0.60250000000000004,-0.15458068251609802,
0.60499999999999998,-0.26216208934783936,,0.60499999999999998,-0.1562875509262085,
0.60750000000000004,-0.26187360286712646,,0.60750000000000004,-0.15881180763244629,
0.60999999999999999,-0.26151299476623535,,0.60999999999999999,-0.16688942909240723,
0.61250000000000004,-0.26079177856445312,,0.61250000000000004,-0.17273128032684326,
0.61499999999999999,-0.26047927141189575,,0.61499999999999999,-0.17984728515148163,
0.61750000000000005,-0.26028692722320557,,0.61750000000000005,-0.188261479139328,
0.62,-0.26019078493118286,,0.62,-0.20859977602958679,
0.62250000000000005,-0.26038309931755066,,0.62250000000000005,-0.22018730640411377,
0.625,-0.26059946417808533,,0.625,-0.23242394626140594,
0.62749999999999995,-0.26081582903862,,0.62749999999999995,-0.24504522979259491,
0.63,-0.26098412275314331,,0.63,-0.27052819728851318,
0.63249999999999995,-0.26105624437332153,,0.63249999999999995,-0.2830052375793457,
0.63500000000000001,-0.26074370741844177,,0.63500000000000001,-0.29514572024345398,
0.63749999999999996,-0.26035904884338379,,0.63749999999999996,-0.3068774938583374,
0.64000000000000001,-0.25983017683029175,,0.64000000000000001,-0.32909095287322998,
0.64249999999999996,-0.25848388671875,,0.64249999999999996,-0.33957263827323914,
0.64500000000000002,-0.25778672099113464,,0.64500000000000002,-0.34969371557235718,
0.64749999999999996,-0.25713762640953064,,0.64749999999999996,-0.35940608382225037,
0.65000000000000002,-0.25651258230209351,,0.65000000000000002,-0.37741243839263916,
0.65249999999999997,-0.25547882914543152,,0.65249999999999997,-0.38556218147277832,
0.65500000000000003,-0.25504609942436218,,0.65500000000000003,-0.39301475882530212,
0.65749999999999997,-0.25463742017745972,,0.65749999999999997,-0.39969801902770996,
0.66000000000000003,-0.25425276160240173,,0.66000000000000003,-0.41058838367462158,
0.66249999999999998,-0.25369983911514282,,0.66249999999999998,-0.41484355926513672,
0.66500000000000004,-0.2536277174949646,,0.66500000000000004,-0.4184015691280365,
0.66749999999999998,-0.2537238597869873,,0.66749999999999998,-0.42135855555534363,
0.67000000000000004,-0.25403639674186707,,0.67000000000000004,-0.42595028877258301,
0.67249999999999999,-0.2554067075252533,,0.67249999999999999,-0.42780143022537231,
0.67500000000000004,-0.25632023811340332,,0.67500000000000004,-0.42946022748947144,
0.67749999999999999,-0.25728186964988708,,0.67749999999999999,-0.43090265989303589,
0.68000000000000005,-0.25814732909202576,,0.68000000000000005,-0.43318650126457214,
0.6825,-0.25901278853416443,,0.6825,-0.43393176794052124,
0.68500000000000005,-0.25879642367362976,,0.68500000000000005,-0.43438851833343506,
0.6875,-0.25807520747184753,,0.6875,-0.4345327615737915,
0.68999999999999995,-0.25692126154899597,,0.68999999999999995,-0.43410003185272217,
0.6925,-0.25367578864097595,,0.6925,-0.43361923098564148,
0.69499999999999995,-0.25192081928253174,,0.69499999999999995,-0.43309032917022705,
0.69750000000000001,-0.25033414363861084,,0.69750000000000001,-0.43260952830314636,
0.69999999999999996,-0.24903595447540283,,0.69999999999999996,-0.43193638324737549,
0.70250000000000001,-0.24761757254600525,,0.70250000000000001,-0.43179214000701904,
0.70499999999999996,-0.24744927883148193,,0.70499999999999996,-0.43172001838684082,
0.70750000000000002,-0.24754545092582703,,0.70750000000000002,-0.43169599771499634,
0.70999999999999996,-0.24768969416618347,,0.70999999999999996,-0.43143153190612793,
0.71250000000000002,-0.24764160811901093,,0.71250000000000002,-0.43107092380523682,
0.71499999999999997,-0.24716079235076904,,0.71499999999999997,-0.43051800131797791,
0.71750000000000003,-0.24631938338279724,,0.71750000000000003,-0.42979678511619568,
0.71999999999999997,-0.24514138698577881,,0.71999999999999997,-0.42794567346572876,
0.72250000000000003,-0.24223248660564423,,0.72250000000000003,-0.426984041929245,
0.72499999999999998,-0.24079005420207977,,0.72499999999999998,-0.42616665363311768,
0.72750000000000004,-0.23956398665904999,,0.72750000000000004,-0.42554160952568054,
0.72999999999999998,-0.23869852721691132,,0.72999999999999998,-0.42513293027877808,
0.73250000000000004,-0.23826579749584198,,0.73250000000000004,-0.4253973662853241,
0.73499999999999999,-0.23867449164390564,,0.73499999999999999,-0.42587816715240479,
0.73750000000000004,-0.23939570784568787,,0.73750000000000004,-0.42652726173400879,
0.73999999999999999,-0.24030923843383789,,0.73999999999999999,-0.42772930860519409,
0.74250000000000005,-0.24223248660564423,,0.74250000000000005,-0.42799374461174011,
0.745,-0.24302582442760468,,0.745,-0.42784950137138367,
0.74750000000000005,-0.24360279738903046,,0.74750000000000005,-0.42720040678977966,
0.75,-0.24391531944274902,,0.75,-0.42429149150848389,
0.75249999999999995,-0.24381916224956512,,0.75249999999999995,-0.42215189337730408,
0.755,-0.24341046810150146,,0.755,-0.41974782943725586,
0.75749999999999995,-0.24283349514007568,,0.75749999999999995,-0.41729569435119629,
0.76000000000000001,-0.24208824336528778,,0.76000000000000001,-0.4131847620010376,
0.76249999999999996,-0.24038136005401611,,0.76249999999999996,-0.41193467378616333,
0.76500000000000001,-0.23951590061187744,,0.76500000000000001,-0.4114057719707489,
0.76749999999999996,-0.23867449164390564,,0.76749999999999996,-0.41162213683128357,
0.77000000000000002,-0.23795327544212341,,0.77000000000000002,-0.41393002867698669,
0.77249999999999996,-0.2369435727596283,,0.77249999999999996,-0.41561287641525269,
0.77500000000000002,-0.23670315742492676,,0.77500000000000002,-0.41729569435119629,
0.77749999999999997,-0.23658296465873718,,0.77749999999999997,-0.41873812675476074,
0.78000000000000003,-0.23660700023174286,,0.78000000000000003,-0.42003631591796875,
0.78249999999999997,-0.23679932951927185,,0.78249999999999997,-0.41972380876541138,
0.78500000000000003,-0.23687145113945007,,0.78500000000000003,-0.41878622770309448,
0.78749999999999998,-0.2369435727596283,,0.78749999999999998,-0.41736781597137451,
0.79000000000000004,-0.2369435727596283,,0.79000000000000004,-0.4138338565826416,
0.79249999999999998,-0.23696760833263397,,0.79249999999999998,-0.41212698817253113,
0.79500000000000004,-0.23703972995281219,,0.79500000000000004,-0.41070860624313354,
0.79749999999999999,-0.23720800876617432,,0.79749999999999999,-0.40965080261230469,
0.80000000000000004,-0.23747245967388153,,0.80000000000000004,-0.40868920087814331,
0.80249999999999999,-0.23828983306884766,,0.80249999999999999,-0.40866515040397644,
0.80500000000000005,-0.23874661326408386,,0.80500000000000005,-0.40878534317016602,
0.8075,-0.23910722136497498,,0.8075,-0.40895363688468933,
0.81000000000000005,-0.23934762179851532,,0.81000000000000005,-0.40892958641052246,
0.8125,-0.23915529251098633,,0.8125,-0.40864109992980957,
0.81499999999999995,-0.23872256278991699,,0.81499999999999995,-0.40813624858856201,
0.8175,-0.23807346820831299,,0.8175,-0.40741503238677979,
0.81999999999999995,-0.23730418086051941,,0.81999999999999995,-0.40563604235649109,
0.82250000000000001,-0.23559729754924774,,0.82250000000000001,-0.40467441082000732,
0.82499999999999996,-0.23482799530029297,,0.82499999999999996,-0.40373682975769043,
0.82750000000000001,-0.23410677909851074,,0.82750000000000001,-0.40282329916954041,
0.82999999999999996,-0.23345768451690674,,0.82999999999999996,-0.40123662352561951,
0.83250000000000002,-0.23203930258750916,,0.83250000000000002,-0.40056347846984863,
0.83499999999999996,-0.23107767105102539,,0.83499999999999996,-0.39998650550842285,
0.83750000000000002,-0.22987565398216248,,0.83750000000000002,-0.39948165416717529,
0.83999999999999997,-0.22833704948425293,,0.83999999999999997,-0.39880853891372681,
0.84250000000000003,-0.22434632480144501,,0.84250000000000003,-0.39864024519920349,
0.84499999999999997,-0.22203843295574188,,0.84499999999999997,-0.39864024519920349,
0.84750000000000003,-0.21970650553703308,,0.84750000000000003,-0.39873641729354858,
0.84999999999999998,-0.21749477088451385,,0.84999999999999998,-0.39916914701461792,
0.85250000000000004,-0.21398484706878662,,0.85250000000000004,-0.39936146140098572,
0.85499999999999998,-0.21292707324028015,,0.85499999999999998,-0.39940953254699707,
0.85750000000000004,-0.21239817142486572,,0.85750000000000004,-0.39926528930664062,
0.85999999999999999,-0.21239817142486572,,0.85999999999999999,-0.39799115061759949,
0.86250000000000004,-0.21374444663524628,,0.86250000000000004,-0.39678913354873657,
0.86499999999999999,-0.21487435698509216,,0.86499999999999999,-0.39520245790481567,
0.86750000000000005,-0.21610042452812195,,0.86750000000000005,-0.39325517416000366,
0.87,-0.21727840602397919,,0.87,-0.38842302560806274,
0.87250000000000005,-0.21884104609489441,,0.87250000000000005,-0.38573047518730164,
0.875,-0.21891316771507263,,0.875,-0.3829658031463623,
0.87749999999999995,-0.2182881087064743,,0.87749999999999995,-0.38022518157958984,
0.88,-0.21684567630290985,,0.88,-0.37520071864128113,
0.88249999999999995,-0.21119615435600281,,0.88249999999999995,-0.37310919165611267,
0.88500000000000001,-0.20694097876548767,,0.88500000000000001,-0.37145039439201355,
0.88749999999999996,-0.20182034373283386,,0.88749999999999996,-0.37024837732315063,
0.89000000000000001,-0.1960025280714035,,0.89000000000000001,-0.36947906017303467,
0.89249999999999996,-0.18335720896720886,,0.89249999999999996,-0.36988776922225952,
0.89500000000000002,-0.17725090682506561,,0.89500000000000002,-0.37072917819023132,
0.89749999999999996,-0.17181774973869324,,0.89749999999999996,-0.37190717458724976,
0.90000000000000002,-0.16741833090782166,,0.90000000000000002,-0.37438333034515381,
0.90249999999999997,-0.16292273998260498,,0.90249999999999997,-0.375224769115448,
0.90500000000000003,-0.16318719089031219,,0.90500000000000003,-0.37548920512199402,
0.90749999999999997,-0.16513447463512421,,0.90749999999999997,-0.37498435378074646,
0.91000000000000003,-0.16864439845085144,,0.91000000000000003,-0.37106573581695557,
0.91249999999999998,-0.17915010452270508,,0.91249999999999998,-0.36762794852256775,
0.91500000000000004,-0.18544873595237732,,0.91500000000000004,-0.36327660083770752,
0.91749999999999998,-0.19193968176841736,,0.91749999999999998,-0.35820406675338745,
0.92000000000000004,-0.19828638434410095,,0.92000000000000004,-0.34690499305725098,
0.92249999999999999,-0.20948927104473114,,0.92249999999999999,-0.3411833643913269,
0.92500000000000004,-0.21405696868896484,,0.92500000000000004,-0.33577424287796021,
0.92749999999999999,-0.21795153617858887,,0.92749999999999999,-0.33091804385185242,
0.93000000000000005,-0.22119700908660889,,0.93000000000000005,-0.32346546649932861,
0.9325,-0.22636573016643524,,0.9325,-0.32113355398178101,
0.93500000000000005,-0.22857746481895447,,0.93500000000000005,-0.31981131434440613,
0.9375,-0.23076514899730682,,0.9375,-0.31957089900970459,
0.93999999999999995,-0.23297688364982605,,0.93999999999999995,-0.32247981429100037,
0.9425,-0.23744842410087585,,0.9425,-0.32567721605300903,
0.94499999999999995,-0.23949186503887177,,0.94499999999999995,-0.33000451326370239,
0.94750000000000001,-0.24115066230297089,,0.94750000000000001,-0.33546170592308044,
0.94999999999999996,-0.24211227893829346,,0.94999999999999996,-0.34909269213676453,
0.95250000000000001,-0.24105450510978699,,0.95250000000000001,-0.35680970549583435,
0.95499999999999996,-0.23872256278991699,,0.95499999999999996,-0.36476713418960571,
0.95750000000000002,-0.2352607250213623,,0.95750000000000002,-0.37255626916885376,
0.95999999999999996,-0.23098151385784149,,0.95999999999999996,-0.38628339767456055,
0.96250000000000002,-0.22251924872398376,,0.96250000000000002,-0.39162039756774902,
0.96499999999999997,-0.22013923525810242,,0.96499999999999997,-0.39570730924606323,
0.96750000000000003,-0.22042772173881531,,0.96750000000000003,-0.39849600195884705,
0.96999999999999997,-0.22441844642162323,,0.96999999999999997,-0.40034711360931396,
0.97250000000000003,-0.24631938338279724,,0.97250000000000003,-0.39972206950187683,
0.97499999999999998,-0.26471039652824402,,0.97499999999999998,-0.3983517587184906,
0.97750000000000004,-0.28742870688438416,,0.97750000000000004,-0.39635640382766724,
0.97999999999999998,-0.31329631805419922,,0.97999999999999998,-0.39113959670066833,
0.98250000000000004,-0.36640188097953796,,0.98250000000000004,-0.38806241750717163,
0.98499999999999999,-0.38839897513389587,,0.98499999999999999,-0.38474482297897339,
0.98750000000000004,-0.40330410003662109,,0.98750000000000004,-0.38135510683059692,
0.98999999999999999,-0.40789586305618286,,0.98999999999999999,-0.37529689073562622,
0.99250000000000005,-0.37433525919914246,,0.99250000000000005,-0.37356597185134888,
0.995,-0.33142289519309998,,0.995,-0.37349385023117065,
0.99750000000000005,-0.2693021297454834,,0.99750000000000005,-0.37582576274871826,
1,-0.18792490661144257,58.823528289794922,1,-0.39041838049888611,84.905662536621094
1.0024999999999999,0.025651257485151291,,1.0024999999999999,-0.40361663699150085,
1.0049999999999999,0.15066206455230713,,1.0049999999999999,-0.42075753211975098,
1.0075000000000001,0.280577152967453,,1.0075000000000001,-0.4413362443447113,
1.01,0.40844878554344177,,1.01,-0.48787873983383179,
1.0125,0.62724173069000244,,1.0125,-0.50999605655670166,
1.0149999999999999,0.70304155349731445,,1.0149999999999999,-0.52805048227310181,
1.0175000000000001,0.74804544448852539,,1.0175000000000001,-0.53920531272888184,
1.02,0.75811845064163208,,1.02,-0.52930057048797607,
1.0225,0.66988968849182129,,1.0225,-0.50307238101959229,
1.0249999999999999,0.57661235332489014,,1.0249999999999999,-0.46015998721122742,
1.0275000000000001,0.45826077461242676,,1.0275000000000001,-0.39967399835586548,
1.03,0.3231048583984375,,1.03,-0.22816877067089081,
1.0325,0.039883255958557129,,1.0325,-0.12142877280712128,
1.0349999999999999,-0.090007781982421875,,1.0349999999999999,-0.0058178110048174858,
1.0375000000000001,-0.20210883021354675,,1.0375000000000001,0.11332710832357407,
1.04,-0.2915877103805542,,1.04,0.33623099327087402,
1.0425,-0.39577943086624146,,1.0425,0.42619070410728455,
1.0449999999999999,-0.41296839714050293,,1.0449999999999999,0.49311956763267517,
1.0475000000000001,-0.41171830892562866,,1.0475000000000001,0.53182482719421387,
1.05,-0.3969573974609375,,1.05,0.5127606987953186,
1.0525,-0.34743389487266541,,1.0525,0.45484703779220581,
1.0549999999999999,-0.32147011160850525,,1.0549999999999999,0.36863765120506287,
1.0575000000000001,-0.29875180125236511,,1.0575000000000001,0.25983017683029175,
1.0600000000000001,-0.28081756830215454,,1.0600000000000001,0.0051927566528320312,
1.0625,-0.2596859335899353,,1.0625,-0.12376070022583008,
1.0649999999999999,-0.25478166341781616,,1.0649999999999999,-0.24307391047477722,
1.0674999999999999,-0.25189679861068726,,1.0674999999999999,-0.34627994894981384,
1.0700000000000001,-0.24975717067718506,,1.0700000000000001,-0.48845571279525757,
1.0725,-0.24393936991691589,,1.0725,-0.5250694751739502,
1.075,-0.23949186503887177,,1.075,-0.54064774513244629,
1.0774999999999999,-0.23413082957267761,,1.0774999999999999,-0.53874850273132324,
1.0800000000000001,-0.22824089229106903,,1.0800000000000001,-0.50078850984573364,
1.0825,-0.21696588397026062,,1.0825,-0.47415158152580261,
1.085,-0.21235010027885437,,1.085,-0.44777911901473999,
1.0874999999999999,-0.20869593322277069,,1.0874999999999999,-0.4244597852230072,
1.0900000000000001,-0.20600339770317078,,1.0900000000000001,-0.39250990748405457,
1.0925,-0.20254155993461609,,1.0925,-0.38404762744903564,
1.095,-0.20121932029724121,,1.095,-0.37952801585197449,
1.0974999999999999,-0.19977688789367676,,1.0974999999999999,-0.37755668163299561,
1.1000000000000001,-0.19802193343639374,,1.1000000000000001,-0.37618637084960938,
1.1025,-0.19345423579216003,,1.1025,-0.37474393844604492,
1.105,-0.19073764979839325,,1.105,-0.37207543849945068,
1.1074999999999999,-0.18794894218444824,,1.1074999999999999,-0.36810874938964844,
1.1100000000000001,-0.18523237109184265,,1.1100000000000001,-0.35719436407089233,
1.1125,-0.18044829368591309,,1.1125,-0.35113614797592163,
1.115,-0.17842888832092285,,1.115,-0.3452942967414856,
1.1174999999999999,-0.17660181224346161,,1.1174999999999999,-0.34005343914031982,
1.1200000000000001,-0.17482280731201172,,1.1200000000000001,-0.33231240510940552,
1.1225000000000001,-0.17100036144256592,,1.1225000000000001,-0.32988429069519043,
1.125,-0.16876459121704102,,1.125,-0.32836973667144775,
1.1274999999999999,-0.16621629893779755,,1.1274999999999999,-0.32750427722930908,
1.1299999999999999,-0.16342759132385254,,1.1299999999999999,-0.32680711150169373,
1.1325000000000001,-0.15734533965587616,,1.1325000000000001,-0.32642245292663574,
1.135,-0.15426814556121826,,1.135,-0.32570123672485352,
1.1375,-0.15128712356090546,,1.1375,-0.32442709803581238,
1.1399999999999999,-0.14847438037395477,,1.1399999999999999,-0.31976324319839478,
1.1425000000000001,-0.14335374534130096,,1.1425000000000001,-0.31632542610168457,
1.145,-0.14097373187541962,,1.145,-0.31226259469985962,
1.1475,-0.13861775398254395,,1.1475,-0.3078150749206543,
1.1499999999999999,-0.13621370494365692,,1.1499999999999999,-0.29863160848617554,
1.1525000000000001,-0.13099691271781921,,1.1525000000000001,-0.29442450404167175,
1.155,-0.12808799743652344,,1.155,-0.29079437255859375,
1.1575,-0.12496273219585419,,1.1575,-0.28783738613128662,
1.1599999999999999,-0.12162109464406967,,1.1599999999999999,-0.28399091958999634,
1.1625000000000001,-0.11431276798248291,,1.1625000000000001,-0.28288504481315613,
1.165,-0.11032204329967499,,1.165,-0.28201958537101746,
1.1675,-0.10609090328216553,,1.1675,-0.28113007545471191,
1.1699999999999999,-0.10157128423452377,,1.1699999999999999,-0.27824521064758301,
1.1725000000000001,-0.091522336006164551,,1.1725000000000001,-0.27586519718170166,
1.175,-0.08594493567943573,,1.175,-0.27276396751403809,
1.1775,-0.079982876777648926,,1.1775,-0.2689175009727478,
1.1799999999999999,-0.073660217225551605,,1.1799999999999999,-0.25963783264160156,
1.1825000000000001,-0.060173474252223969,,1.1825000000000001,-0.25454124808311462,
1.1850000000000001,-0.053177677094936371,,1.1850000000000001,-0.24944464862346649,
1.1875,-0.046085715293884277,,1.1875,-0.24446825683116913,
1.1899999999999999,-0.039017796516418457,,1.1899999999999999,-0.2352607250213623,
1.1924999999999999,-0.025002162903547287,,1.1924999999999999,-0.23100554943084717,
1.1950000000000001,-0.018102526664733887,,1.1950000000000001,-0.22689461708068848,
1.1975,-0.011250972747802734,,1.1975,-0.22283177077770233,
1.2,-0.0044715404510498047,,1.2,-0.21434545516967773,
1.2024999999999999,0.009015202522277832,,1.2024999999999999,-0.20977775752544403,
1.2050000000000001,0.015650391578674316,,1.2050000000000001,-0.20494560897350311,
1.2075,0.022141337394714355,,1.2075,-0.1998249739408493,
1.21,0.028391879051923752,,1.21,-0.18888652324676514,
1.2124999999999999,0.039835177361965179,,1.2124999999999999,-0.18309275805950165,
1.2150000000000001,0.044835608452558517,,1.2150000000000001,-0.17705857753753662,
1.2175,0.049259066581726074,,1.2175,-0.17080804705619812,
1.22,0.053081512451171875,,1.22,-0.15739342570304871,
1.2224999999999999,0.058971446007490158,,1.2224999999999999,-0.15018126368522644,
1.2250000000000001,0.06108701229095459,,1.2250000000000001,-0.14260849356651306,
1.2275,0.062745809555053711,,1.2275,-0.13472318649291992,
1.23,0.063923798501491547,,1.23,-0.1185198649764061,
1.2324999999999999,0.064957544207572937,,1.2324999999999999,-0.11051436513662338,
1.2350000000000001,0.064645014703273773,,1.2350000000000001,-0.10277330875396729,
1.2375,0.063659355044364929,,1.2375,-0.09551306813955307,
1.24,0.061808228492736816,,1.24,-0.082795619964599609,
1.2424999999999999,0.054764352738857269,,1.2424999999999999,-0.077458620071411133,
1.2450000000000001,0.049235027283430099,,1.2450000000000001,-0.07277071475982666,
1.2475000000000001,0.042191147804260254,,1.2475000000000001,-0.068587660789489746,
1.25,0.033584635704755783,,1.25,-0.061351459473371506,
1.2524999999999999,0.012092391960322857,,1.2524999999999999,-0.058033864945173264,
1.2549999999999999,-0.00043272972106933594,,1.2549999999999999,-0.054812431335449219,
1.2575000000000001,-0.013823310844600201,,1.2575000000000001,-0.051759283989667892,
1.26,-0.0276947021484375,,1.26,-0.046494405716657639,
1.2625,-0.055750012397766113,,1.2625,-0.04478752613067627,
1.2649999999999999,-0.069405041635036469,,1.2649999999999999,-0.044042270630598068,
1.2675000000000001,-0.082531176507472992,,1.2675000000000001,-0.044595204293727875,
1.27,-0.095104381442070007,,1.27,-0.050677459686994553,
1.2725,-0.1184237003326416,,1.2725,-0.056543350219726562,
1.2749999999999999,-0.12931406497955322,,1.2749999999999999,-0.064356528222560883,
1.2775000000000001,-0.13972362875938416,,1.2775000000000001,-0.073996782302856445,
1.28,-0.1497485339641571,,1.28,-0.097796916961669922,
1.2825,-0.168500155210495,,1.2825,-0.11125962436199188,
1.2849999999999999,-0.17715474963188171,,1.2849999999999999,-0.12525121867656708,
1.2875000000000001,-0.18516024947166443,,1.2875000000000001,-0.13938705623149872,
1.29,-0.19246856868267059,,1.29,-0.166817307472229,
1.2925,-0.204585000872612,,1.2925,-0.17967900633811951,
1.2949999999999999,-0.20939311385154724,,1.2949999999999999,-0.19181947410106659,
1.2975000000000001,-0.21343192458152771,,1.2975000000000001,-0.20321469008922577,
1.3,-0.21677355468273163,,1.3,-0.22412995994091034,
1.3025,-0.22201439738273621,,1.3025,-0.23379425704479218,
1.3049999999999999,-0.22417804598808289,,1.3049999999999999,-0.24307391047477722,
1.3075000000000001,-0.22617340087890625,,1.3075000000000001,-0.25196892023086548,
1.3100000000000001,-0.22807261347770691,,1.3100000000000001,-0.26872515678405762,
1.3125,-0.23158252239227295,,1.3125,-0.27649027109146118,
1.3149999999999999,-0.23307304084300995,,1.3149999999999999,-0.2837505042552948,
1.3174999999999999,-0.23427507281303406,,1.3174999999999999,-0.29040974378585815,
1.3200000000000001,-0.23516456782817841,,1.3200000000000001,-0.30170878767967224,
1.3225,-0.23576557636260986,,1.3225,-0.30630052089691162,
1.325,-0.2355492115020752,,1.325,-0.31024318933486938,
1.3274999999999999,-0.23509244620800018,,1.3274999999999999,-0.31351268291473389,
1.3300000000000001,-0.2345154732465744,,1.3300000000000001,-0.31851312518119812,
1.3325,-0.23348173499107361,,1.3325,-0.32036423683166504,
1.335,-0.23316919803619385,,1.335,-0.32187879085540771,
1.3374999999999999,-0.23309707641601562,,1.3374999999999999,-0.32413861155509949,
1.3400000000000001,-0.23324131965637207,,1.3400000000000001,-0.32498002052307129,
1.3425,-0.2338663786649704,,1.3425,-0.32562911510467529,
1.345,-0.23422698676586151,,1.345,-0.32610994577407837,
1.3474999999999999,-0.23449143767356873,,1.3474999999999999,-0.32639843225479126,
1.3500000000000001,-0.23456355929374695,,1.3500000000000001,-0.32635033130645752,
1.3525,-0.23417890071868896,,1.3525,-0.32598972320556641,
1.355,-0.23372213542461395,,1.355,-0.32538872957229614,
1.3574999999999999,-0.23314516246318817,,1.3574999999999999,-0.32341739535331726,
1.3600000000000001,-0.23256818950176239,,1.3600000000000001,-0.32214325666427612,
1.3625,-0.23158252239227295,,1.3625,-0.32072484493255615,
1.365,-0.23131808638572693,,1.365,-0.31925839185714722,
1.3674999999999999,-0.23119787871837616,,1.3674999999999999,-0.3166620135307312,
1.3700000000000001,-0.23124596476554871,,1.3700000000000001,-0.31570038199424744,
1.3725000000000001,-0.2316306084394455,,1.3725000000000001,-0.3150753378868103,
1.375,-0.23187100887298584,,1.375,-0.31478685140609741,
1.3774999999999999,-0.23206333816051483,,1.3774999999999999,-0.31509935855865479,
1.3799999999999999,-0.23215949535369873,,1.3799999999999999,-0.31548401713371277,
1.3825000000000001,-0.23189505934715271,,1.3825000000000001,-0.31579655408859253,
1.385,-0.2315344512462616,,1.385,-0.31594079732894897,
1.3875,-0.23102959990501404,,1.3875,-0.3150753378868103,
1.3899999999999999,-0.23040454089641571,,1.3899999999999999,-0.31394541263580322,
1.3925000000000001,-0.22886595129966736,,1.3925000000000001,-0.31238278746604919,
1.395,-0.22797644138336182,,1.395,-0.31045955419540405,
1.3975,-0.22703886032104492,,1.3975,-0.30627650022506714,
1.3999999999999999,-0.22600512206554413,,1.3999999999999999,-0.30435323715209961,
1.4025000000000001,-0.22376935184001923,,1.4025000000000001,-0.30279061198234558,
1.405,-0.22254328429698944,,1.405,-0.30163666605949402,
1.4075,-0.22129318118095398,,1.4075,-0.30072313547134399,
1.4099999999999999,-0.22006711363792419,,1.4099999999999999,-0.30074715614318848,
1.4125000000000001,-0.21780729293823242,,1.4125000000000001,-0.30089139938354492,
1.415,-0.21691779792308807,,1.415,-0.30098757147789001,
1.4175,-0.21622061729431152,,1.4175,-0.30029040575027466,
1.4199999999999999,-0.21576385200023651,,1.4199999999999999,-0.29932877421379089,
1.4225000000000001,-0.21545132994651794,,1.4225000000000001,-0.29800653457641602,
1.425,-0.21552345156669617,,1.425,-0.29641985893249512,
1.4275,-0.21564364433288574,,1.4275,-0.294761061668396,
1.4299999999999999,-0.21571576595306396,,1.4299999999999999,-0.29202044010162354,
1.4325000000000001,-0.21542727947235107,,1.4325000000000001,-0.29132327437400818,
1.4350000000000001,-0.21492242813110352,,1.4350000000000001,-0.29117903113365173,
1.4375,-0.21417717635631561,,1.4375,-0.29254934191703796,
1.4399999999999999,-0.21319150924682617,,1.4399999999999999,-0.2938234806060791,
1.4424999999999999,-0.2107393741607666,,1.4424999999999999,-0.29524189233779907,
1.4450000000000001,-0.20939311385154724,,1.4450000000000001,-0.2966122031211853,
1.4475,-0.20809492468833923,,1.4475,-0.29855948686599731,
1.45,-0.20689289271831512,,1.45,-0.29899221658706665,
1.4524999999999999,-0.20501773059368134,,1.4524999999999999,-0.299040287733078,
1.4550000000000001,-0.20439267158508301,,1.4550000000000001,-0.29879987239837646,
1.4575,-0.20398399233818054,,1.4575,-0.29783827066421509,
1.46,-0.20379166305065155,,1.46,-0.29728531837463379,
1.4624999999999999,-0.20379166305065155,,1.4624999999999999,-0.2968045175075531,
1.4650000000000001,-0.20386378467082977,,1.4650000000000001,-0.29639583826065063,
1.4675,-0.20386378467082977,,1.4675,-0.29569864273071289,
1.47,-0.20369550585746765,,1.47,-0.29528996348381042,
1.4724999999999999,-0.202445387840271,,1.4724999999999999,-0.29478511214256287,
1.4750000000000001,-0.20124337077140808,,1.4750000000000001,-0.29413601756095886,
1.4775,-0.19958457350730896,,1.4775,-0.29250127077102661,
1.48,-0.1975892037153244,,1.48,-0.29156368970870972,
1.4824999999999999,-0.19297342002391815,,1.4824999999999999,-0.29067417979240417,
1.4850000000000001,-0.19076168537139893,,1.4850000000000001,-0.2898087203502655,
1.4875,-0.18888652324676514,,1.4875,-0.28843840956687927,
1.49,-0.18754026293754578,,1.49,-0.28788548707962036,
1.4924999999999999,-0.18689116835594177,,1.4924999999999999,-0.2873806357383728,
1.4950000000000001,-0.187612384557724,,1.4950000000000001,-0.2868276834487915,
1.4975000000000001,-0.18888652324676514,,1.4975000000000001,-0.28545737266540527,
1.5,-0.19052128493785858,,1.5,-0.28451979160308838,
1.5024999999999999,-0.19388696551322937,,1.5024999999999999,-0.28343796730041504,
1.5049999999999999,-0.19518515467643738,,1.5049999999999999,-0.28221189975738525,
1.5075000000000001,-0.1960025280714035,,1.5075000000000001,-0.27966362237930298,
1.51,-0.19629101455211639,,1.51,-0.27848562598228455,
1.5125,-0.1954495906829834,,1.5125,-0.27745187282562256,
1.5149999999999999,-0.19456009566783905,,1.5149999999999999,-0.27663451433181763,
1.5175000000000001,-0.19359847903251648,,1.5175000000000001,-0.27557671070098877,
1.52,-0.19266089797019958,,1.52,-0.27533632516860962,
1.5225,-0.19124250113964081,,1.5225,-0.2751680314540863,
1.5249999999999999,-0.19076168537139893,,1.5249999999999999,-0.27507185935974121,
1.5275000000000001,-0.19030492007732391,,1.5275000000000001,-0.27497571706771851,
1.53,-0.18977603316307068,,1.53,-0.27463912963867188,
1.5325,-0.18792490661144257,,1.5325,-0.27437469363212585,
1.5349999999999999,-0.18643438816070557,,1.5349999999999999,-0.27408620715141296,
1.5375000000000001,-0.1845351904630661,,1.5375000000000001,-0.27350923418998718,
1.54,-0.1822994202375412,,1.54,-0.27324479818344116,
1.5425,-0.17727494239807129,,1.5425,-0.27302843332290649,
1.5449999999999999,-0.17479877173900604,,1.5449999999999999,-0.27278801798820496,
1.5475000000000001,-0.17256300151348114,,1.5475000000000001,-0.27204275131225586,
1.55,-0.17071187496185303,,1.55,-0.2713455855846405,
1.5525,-0.16845206916332245,,1.5525,-0.27035993337631226,
1.5549999999999999,-0.16809146106243134,,1.5549999999999999,-0.26901364326477051,
1.5575000000000001,-0.16816358268260956,,1.5575000000000001,-0.265095055103302,
1.5600000000000001,-0.16857227683067322,,1.5600000000000001,-0.26261886954307556,
1.5625,-0.17003874480724335,,1.5625,-0.25995036959648132,
1.5649999999999999,-0.1708320826292038,,1.5649999999999999,-0.25716167688369751,
1.5674999999999999,-0.17155329883098602,,1.5674999999999999,-0.25194486975669861,
1.5700000000000001,-0.17205815017223358,,1.5700000000000001,-0.24975717067718506,
1.5725,-0.17220239341259003,,1.5725,-0.24800221621990204,
1.575,-0.17164945602416992,,1.575,-0.24675211310386658,
1.5774999999999999,-0.17061571776866913,,1.5774999999999999,-0.24564623832702637,
1.5800000000000001,-0.16898095607757568,,1.5800000000000001,-0.24576644599437714,
1.5825,-0.16381224989891052,,1.5825,-0.24619917571544647,
1.585,-0.16023020446300507,,1.585,-0.24684827029705048,
1.5874999999999999,-0.15602311491966248,,1.5874999999999999,-0.2484109103679657,
1.5900000000000001,-0.15126308798789978,,1.5900000000000001,-0.24910807609558105,
1.5925,-0.14058908820152283,,1.5925,-0.24958889186382294,
1.595,-0.13508379459381104,,1.595,-0.24970909953117371,
1.5974999999999999,-0.12974679470062256,,1.5974999999999999,-0.24845898151397705,
1.6000000000000001,-0.12489061057567596,,1.6000000000000001,-0.24689635634422302,
1.6025,-0.1176784485578537,,1.6025,-0.24454037845134735,
1.605,-0.11585136502981186,,1.605,-0.24139106273651123,
1.6074999999999999,-0.11549075692892075,,1.6074999999999999,-0.23276051878929138,
1.6100000000000001,-0.11666874587535858,,1.6100000000000001,-0.22744755446910858,
1.6125,-0.12364050000905991,,1.6125,-0.22172591090202332,
1.615,-0.1291457861661911,,1.615,-0.21583597362041473,
1.6174999999999999,-0.13566076755523682,,1.6174999999999999,-0.20480136573314667,
1.6200000000000001,-0.14280080795288086,,1.6200000000000001,-0.20035386085510254,
1.6225000000000001,-0.15732130408287048,,1.6225000000000001,-0.1970362663269043,
1.625,-0.1639324426651001,,1.625,-0.19508898258209229,
1.6274999999999999,-0.16972622275352478,,1.6274999999999999,-0.1959063708782196,
1.6299999999999999,-0.17451028525829315,,1.6299999999999999,-0.19867102801799774,
1.6325000000000001,-0.18097719550132751,,1.6325000000000001,-0.20280599594116211,
1.635,-0.18290042877197266,,1.635,-0.20807087421417236,
1.6375,-0.18427073955535889,,1.6375,-0.22054791450500488,
1.6399999999999999,-0.18535256385803223,,1.6399999999999999,-0.22703886032104492,
1.6425000000000001,-0.18744409084320068,,1.6425000000000001,-0.23321728408336639,
1.645,-0.18864612281322479,,1.645,-0.23889085650444031,
1.6475,-0.18989622592926025,,1.6475,-0.24809837341308594,
1.6499999999999999,-0.19097805023193359,,1.6499999999999999,-0.25163233280181885,
1.6525000000000001,-0.19145886600017548,,1.6525000000000001,-0.25458931922912598,
1.655,-0.19028088450431824,,1.655,-0.25711357593536377,
1.6575,-0.18790087103843689,,1.6575,-0.26153704524040222,
1.6599999999999999,-0.18436691164970398,,1.6599999999999999,-0.2637006938457489,
1.6625000000000001,-0.1752074658870697,,1.6625000000000001,-0.26586434245109558,
1.665,-0.17088016867637634,,1.665,-0.26793181896209717,
1.6675,-0.16785106062889099,,1.6675,-0.27100902795791626,
1.6699999999999999,-0.16715388000011444,,1.6699999999999999,-0.27148982882499695,
1.6725000000000001,-0.17621716856956482,,1.6725000000000001,-0.2708888053894043,
1.675,-0.18715560436248779,,1.675,-0.26903769373893738,
1.6775,-0.20256559550762177,,1.6775,-0.2616572380065918,
1.6799999999999999,-0.22191822528839111,,1.6799999999999999,-0.25665682554244995,
1.6825000000000001,-0.26807606220245361,,1.6825000000000001,-0.25156021118164062,
1.6850000000000001,-0.2913953959941864,,1.6850000000000001,-0.24720887839794159,
1.6875,-0.31180581450462341,,1.6875,-0.24463653564453125,
1.6899999999999999,-0.32663881778717041,,1.6899999999999999,-0.2484109103679657,
1.6924999999999999,-0.3281293511390686,,1.6924999999999999,-0.25663277506828308,
1.6950000000000001,-0.30928155779838562,,1.6950000000000001,-0.26966273784637451,
1.6975,-0.27425450086593628,,1.6975,-0.30957004427909851,
1.7,-0.22158166766166687,,1.7,-0.33478856086730957,
1.7024999999999999,-0.062192879617214203,,1.7024999999999999,-0.36152166128158569,
1.7050000000000001,0.041710339486598969,,1.7050000000000001,-0.38765370845794678,
1.7075,0.15736937522888184,,1.7075,-0.42792162299156189,
1.71,0.27968764305114746,,1.71,-0.43645602464675903,
1.7124999999999999,0.517616868019104,,1.7124999999999999,-0.43352305889129639,
1.7150000000000001,0.61822652816772461,,1.7150000000000001,-0.41657447814941406,
1.7175,0.69676697254180908,,1.7175,-0.3330816924571991,
1.72,0.74696362018585205,,1.72,-0.26466232538223267,
1.7224999999999999,0.74717998504638672,,1.7224999999999999,-0.17895779013633728,
1.7250000000000001,0.69573324918746948,,1.7250000000000001,-0.077843271195888519,
1.7275,0.61349058151245117,,1.7275,0.15604715049266815,
1.73,0.50626975297927856,,1.73,0.2783413827419281,
1.7324999999999999,0.24901191890239716,,1.7324999999999999,0.39541882276535034,
1.7350000000000001,0.11686106771230698,,1.7350000000000001,0.5000913143157959,
1.7375,-0.0062505407258868217,,1.7375,0.64438265562057495,
1.74,-0.11347135156393051,,1.74,0.6727745532989502,
1.7424999999999999,-0.26372474431991577,,1.7424999999999999,0.66748559474945068,
1.7450000000000001,-0.3044494092464447,,1.7450000000000001,0.62803506851196289,
1.7475000000000001,-0.3243069052696228,,1.7475000000000001,0.45785209536552429,
1.75,-0.32699942588806152,,1.75,0.33856293559074402,
1.7524999999999999,-0.29932877421379089,,1.7524999999999999,0.20701310038566589,
1.7549999999999999,-0.27817308902740479,,1.7549999999999999,0.072145663201808929,
1.7575000000000001,-0.25716167688369751,,1.7575000000000001,-0.17386119067668915,
1.76,-0.23881873488426208,,1.76,-0.27146577835083008,
1.7625,-0.21441757678985596,,1.7625,-0.34647226333618164,
1.7649999999999999,-0.20809492468833923,,1.7649999999999999,-0.39763054251670837,
1.7675000000000001,-0.20451287925243378,,1.7675000000000001,-0.43410003185272217,
1.77,-0.202445387840271,,1.77,-0.42643111944198608,
1.7725,-0.19847869873046875,,1.7725,-0.40772756934165955,
1.7749999999999999,-0.19513706862926483,,1.7749999999999999,-0.3828696608543396,
1.7775000000000001,-0.19052128493785858,,1.7775000000000001,-0.33094209432601929,
1.78,-0.18477559089660645,,1.78,-0.30952197313308716,
1.7825,-0.17133693397045135,,1.7825,-0.29303014278411865,
1.7849999999999999,-0.16453346610069275,,1.7849999999999999,-0.2815147340297699,
1.7875000000000001,-0.15816271305084229,,1.7875000000000001,-0.27028781175613403,
1.79,-0.15248915553092957,,1.79,-0.26819628477096558,
1.7925,-0.14342586696147919,,1.7925,-0.26680192351341248,
1.7949999999999999,-0.13993999361991882,,1.7949999999999999,-0.26519119739532471,
1.7975000000000001,-0.13695895671844482,,1.7975000000000001,-0.25932532548904419,
1.8,-0.13426642119884491,,1.8,-0.25492590665817261,
1.8025,-0.12919387221336365,,1.8025,-0.24987737834453583,
1.8049999999999999,-0.12657344341278076,,1.8049999999999999,-0.24451634287834167,
1.8075000000000001,-0.1238328218460083,,1.8075000000000001,-0.2345154732465744,
1.8100000000000001,-0.12102007865905762,,1.8100000000000001,-0.23040454089641571,
1.8125,-0.11527439206838608,,1.8125,-0.22701482474803925,
1.8149999999999999,-0.11250972747802734,,1.8149999999999999,-0.22439441084861755,
1.8174999999999999,-0.10996143519878387,,1.8174999999999999,-0.22083640098571777,
1.8200000000000001,-0.10767757892608643,,1.8200000000000001,-0.21958629786968231,
1.8225,-0.10402341932058334,,1.8225,-0.21843235194683075,
1.825,-0.10270118713378906,,1.825,-0.21723031997680664,
1.8274999999999999,-0.10161936283111572,,1.8274999999999999,-0.21432141959667206,
1.8300000000000001,-0.10072986781597137,,1.8300000000000001,-0.21256646513938904,
1.8325,-0.099022984504699707,,1.8325,-0.21061918139457703,
1.835,-0.09796520322561264,,1.835,-0.20847956836223602,
1.8374999999999999,-0.096618935465812683,,1.8374999999999999,-0.20381569862365723,
1.8400000000000001,-0.094888016581535339,,1.8400000000000001,-0.2013154923915863,
1.8425,-0.089959703385829926,,1.8425,-0.19874314963817596,
1.845,-0.086714230477809906,,1.845,-0.19605061411857605,
1.8474999999999999,-0.082987949252128601,,1.8474999999999999,-0.19028088450431824,
1.8500000000000001,-0.078804895281791687,,1.8500000000000001,-0.18720369040966034,
1.8525,-0.069453120231628418,,1.8525,-0.18403033912181854,
1.855,-0.064500771462917328,,1.855,-0.18076083064079285,
1.8574999999999999,-0.059524379670619965,,1.8574999999999999,-0.17434200644493103,
1.8600000000000001,-0.054644148796796799,,1.8600000000000001,-0.17131289839744568,
1.8625,-0.045484703034162521,,1.8625,-0.16847610473632812,
1.865,-0.041325688362121582,,1.865,-0.16587972640991211,
1.8674999999999999,-0.037455163896083832,,1.8674999999999999,-0.16126394271850586,
1.8700000000000001,-0.033801000565290451,,1.8700000000000001,-0.15912434458732605,
1.8725000000000001,-0.026781162247061729,,1.8725000000000001,-0.15698473155498505,
1.875,-0.023151040077209473,,1.875,-0.1547008752822876,
1.8774999999999999,-0.019232433289289474,,1.8774999999999999,-0.14933983981609344,
1.8799999999999999,-0.014881094917654991,,1.8799999999999999,-0.1461184024810791,
1.8825000000000001,-0.0045917434617877007,,1.8825000000000001,-0.14246425032615662,
1.885,0.0013703107833862305,,1.885,-0.13844947516918182,
1.8875,0.0078131761401891708,,1.8875,-0.12936215102672577,
1.8899999999999999,0.014568567276000977,,1.8899999999999999,-0.12443383783102036,
1.8925000000000001,0.028512081131339073,,1.8925000000000001,-0.11933724582195282,
1.895,0.035363636910915375,,1.895,-0.11407236754894257,
1.8975,0.041974782943725586,,1.8975,-0.10320603847503662,
1.8999999999999999,0.04832148551940918,,1.8999999999999999,-0.097580552101135254,
1.9025000000000001,0.060149431228637695,,1.9025000000000001,-0.091810822486877441,
1.905,0.065750882029533386,,1.905,-0.085872814059257507,
1.9075,0.071304246783256531,,1.9075,-0.07351597398519516,
1.9099999999999999,0.076809525489807129,,1.9099999999999999,-0.067097149789333344,
1.9125000000000001,0.087988376617431641,,1.9125000000000001,-0.060582160949707031,
1.915,0.093613862991333008,,1.915,-0.053995054215192795,
1.9175,0.099167227745056152,,1.9175,-0.040676593780517578,
1.9199999999999999,0.1045282706618309,,1.9199999999999999,-0.034065447747707367,
1.9225000000000001,0.11416852474212646,,1.9225000000000001,-0.027502378448843956,
1.925,0.11820733547210693,,1.925,-0.021035473793745041,
1.9275,0.12157301604747772,,1.9275,-0.0085584325715899467,
1.9299999999999999,0.12419342994689941,,1.9299999999999999,-0.0026444594841450453,
1.9325000000000001,0.12683789432048798,,1.9325000000000001,0.0030050675850361586,
1.9350000000000001,0.12671768665313721,,1.9350000000000001,0.0083180274814367294,
1.9375,0.12551566958427429,,1.9375,0.017717879265546799,
1.9399999999999999,0.12313564866781235,,1.9399999999999999,0.02170860767364502,
1.9424999999999999,0.11452913284301758,,1.9424999999999999,0.025194486603140831,
1.9450000000000001,0.10818243026733398,,1.9450000000000001,0.028175514191389084,
1.9475,0.10048945993185043,,1.9475,0.032647054642438889,
1.95,0.091498300433158875,,1.95,0.034209690988063812,
1.9524999999999999,0.070198379456996918,,1.9524999999999999,0.035315554589033127,
1.9550000000000001,0.058298312127590179,,1.9550000000000001,0.035940609872341156,
1.9575,0.045845311135053635,,1.9575,0.03550788015127182,
1.96,0.033079784363508224,,1.96,0.034209690988063812,
1.9624999999999999,0.0072362027131021023,,1.9624999999999999,0.03197392076253891,
1.9650000000000001,-0.0056254863739013672,,1.9650000000000001,0.028584202751517296,
1.9675,-0.018366973847150803,,1.9675,0.017741918563842773,
1.97,-0.030988257378339767,,1.97,0.010048946365714073,
1.9724999999999999,-0.055798094719648361,,1.9724999999999999,0.00084141892148181796,
1.9750000000000001,-0.067890487611293793,,1.9750000000000001,-0.0098085403442382812,
1.9775,-0.079670354723930359,,1.9775,-0.034522216767072678,
1.98,-0.090993449091911316,,1.98,-0.047960877418518066,
1.9824999999999999,-0.11169235408306122,,1.9824999999999999,-0.061639945954084396,
1.9850000000000001,-0.12077967822551727,,1.9850000000000001,-0.075198814272880554,
1.9875,-0.12888133525848389,,1.9875,-0.10087411105632782,
1.99,-0.13599734008312225,,1.99,-0.11255781352519989,
1.9924999999999999,-0.14736852049827576,,1.9924999999999999,-0.12342413514852524,
1.9950000000000001,-0.15179197490215302,,1.9950000000000001,-0.13347308337688446,
1.9975000000000001,-0.15556633472442627,,1.9975000000000001,-0.15167176723480225,
2,-0.15883585810661316,49.180328369140625,2,-0.1601099967956543,64.864860534667969
2.0024999999999999,-0.16424497961997986,,2.0024999999999999,-0.16833186149597168,
2.0049999999999999,-0.16657690703868866,,2.0049999999999999,-0.17638544738292694,
2.0074999999999998,-0.16874055564403534,,2.0074999999999998,-0.1920839250087738,
2.0099999999999998,-0.17071187496185303,,2.0099999999999998,-0.19956052303314209,
2.0125000000000002,-0.17412564158439636,,2.0125000000000002,-0.20662844181060791,
2.0150000000000001,-0.17556807398796082,,2.0150000000000001,-0.21309535205364227,
2.0175000000000001,-0.17681817710399628,,2.0175000000000001,-0.2237933874130249,
2.02,-0.17787596583366394,,2.02,-0.22783219814300537,
2.0225,-0.17939051985740662,,2.0225,-0.23102959990501404,
2.0249999999999999,-0.17979919910430908,,2.0249999999999999,-0.23340961337089539,
2.0274999999999999,-0.1799674928188324,,2.0274999999999999,-0.23634254932403564,
2.0299999999999998,-0.17984728515148163,,2.0299999999999998,-0.23713588714599609,
2.0325000000000002,-0.17871737480163574,,2.0325000000000002,-0.23771286010742188,
2.0350000000000001,-0.17775575816631317,,2.0350000000000001,-0.23814558982849121,
2.0375000000000001,-0.17657777667045593,,2.0375000000000001,-0.23874661326408386,
2.04,-0.17532765865325928,,2.04,-0.23893892765045166,
2.0425,-0.17299573123455048,,2.0425,-0.23903509974479675,
2.0449999999999999,-0.17220239341259003,,2.0449999999999999,-0.23903509974479675,
2.0474999999999999,-0.17179369926452637,,2.0474999999999999,-0.23862640559673309,
2.0499999999999998,-0.17186582088470459,,2.0499999999999998,-0.23826579749584198,
2.0525000000000002,-0.17338037490844727,,2.0525000000000002,-0.23785710334777832,
2.0550000000000002,-0.17467856407165527,,2.0550000000000002,-0.23740033805370331,
2.0575000000000001,-0.17612099647521973,,2.0575000000000001,-0.23663103580474854,
2.0600000000000001,-0.17758747935295105,,2.0600000000000001,-0.23634254932403564,
2.0625,-0.17982324957847595,,2.0625,-0.23615023493766785,
2.0649999999999999,-0.18037617206573486,,2.0649999999999999,-0.23598194122314453,
2.0674999999999999,-0.18040022253990173,,2.0674999999999999,-0.23566941916942596,
2.0699999999999998,-0.1799674928188324,,2.0699999999999998,-0.2354530543088913,
2.0724999999999998,-0.17777979373931885,,2.0724999999999998,-0.23514053225517273,
2.0750000000000002,-0.1762412041425705,,2.0750000000000002,-0.23473183810710907,
2.0775000000000001,-0.17458240687847137,,2.0775000000000001,-0.23352980613708496,
2.0800000000000001,-0.17294764518737793,,2.0800000000000001,-0.23278455436229706,
2.0825,-0.17018298804759979,,2.0825,-0.23201525211334229,
2.085,-0.16929349303245544,,2.085,-0.23122191429138184,
2.0874999999999999,-0.16878864169120789,,2.0874999999999999,-0.22980353236198425,
2.0899999999999999,-0.16871652007102966,,2.0899999999999999,-0.22929868102073669,
2.0924999999999998,-0.16977429389953613,,2.0924999999999998,-0.22891402244567871,
2.0950000000000002,-0.17075996100902557,,2.0950000000000002,-0.22874574363231659,
2.0975000000000001,-0.17184178531169891,,2.0975000000000001,-0.22891402244567871,
2.1000000000000001,-0.17289957404136658,,2.1000000000000001,-0.2292025089263916,
2.1025,-0.17431795597076416,,2.1025,-0.22958716750144958,
2.105,-0.17446219921112061,,2.105,-0.22997181117534637,
2.1074999999999999,-0.17417371273040771,,2.1074999999999999,-0.23052474856376648,
2.1099999999999999,-0.17342846095561981,,2.1099999999999999,-0.23054878413677216,
2.1124999999999998,-0.17088016867637634,,2.1124999999999998,-0.23035645484924316,
2.1150000000000002,-0.1693415641784668,,2.1150000000000002,-0.22992372512817383,
2.1175000000000002,-0.1677548885345459,,2.1175000000000002,-0.22828897833824158,
2.1200000000000001,-0.16624033451080322,,2.1200000000000001,-0.22718310356140137,
2.1225000000000001,-0.16366800665855408,,2.1225000000000001,-0.22593300044536591,
2.125,-0.16261021792888641,,2.125,-0.22465884685516357,
2.1274999999999999,-0.1616966724395752,,2.1274999999999999,-0.22223076224327087,
2.1299999999999999,-0.16085526347160339,,2.1299999999999999,-0.22119700908660889,
2.1324999999999998,-0.15931665897369385,,2.1324999999999998,-0.22033154964447021,
2.1349999999999998,-0.15859544277191162,,2.1349999999999998,-0.21961033344268799,
2.1375000000000002,-0.15794634819030762,,2.1375000000000002,-0.21845638751983643,
2.1400000000000001,-0.15739342570304871,,2.1400000000000001,-0.21792750060558319,
2.1425000000000001,-0.15662412345409393,,2.1425000000000001,-0.21737456321716309,
2.145,-0.15640775859355927,,2.145,-0.21677355468273163,
2.1475,-0.15626351535320282,,2.1475,-0.2154032438993454,
2.1499999999999999,-0.1560952365398407,,2.1499999999999999,-0.21470606327056885,
2.1524999999999999,-0.15542209148406982,,2.1524999999999999,-0.21405696868896484,
2.1549999999999998,-0.15479704737663269,,2.1549999999999998,-0.21347999572753906,
2.1575000000000002,-0.15393158793449402,,2.1575000000000002,-0.21275877952575684,
2.1600000000000001,-0.1529218852519989,,2.1600000000000001,-0.21256646513938904,
2.1625000000000001,-0.15063802897930145,,2.1625000000000001,-0.21247029304504395,
2.165,-0.14962832629680634,,2.165,-0.21237413585186005,
2.1675,-0.14883498847484589,,2.1675,-0.21201352775096893,
2.1699999999999999,-0.14830610156059265,,2.1699999999999999,-0.21165291965007782,
2.1724999999999999,-0.14808973670005798,,2.1724999999999999,-0.21114806830883026,
2.1749999999999998,-0.14820992946624756,,2.1749999999999998,-0.21049897372722626,
2.1775000000000002,-0.14830610156059265,,2.1775000000000002,-0.20898441970348358,
2.1800000000000002,-0.14823397994041443,,2.1800000000000002,-0.20821511745452881,
2.1825000000000001,-0.14720022678375244,,2.1825000000000001,-0.20754198729991913,
2.1850000000000001,-0.1461184024810791,,2.1850000000000001,-0.20696501433849335,
2.1875,-0.14474809169769287,,2.1875,-0.20612359046936035,
2.1899999999999999,-0.14320950210094452,,2.1899999999999999,-0.20578703284263611,
2.1924999999999999,-0.14042079448699951,,2.1924999999999999,-0.20545046031475067,
2.1949999999999998,-0.13955533504486084,,2.1949999999999998,-0.20508985221385956,
2.1974999999999998,-0.13919472694396973,,2.1974999999999998,-0.20422439277172089,
2.2000000000000002,-0.13938705623149872,,2.2000000000000002,-0.20371954143047333,
2.2025000000000001,-0.14128625392913818,,2.2025000000000001,-0.20326277613639832,
2.2050000000000001,-0.14265656471252441,,2.2050000000000001,-0.20287811756134033,
2.2075,-0.14405092597007751,,2.2075,-0.20256559550762177,
2.21,-0.14525294303894043,,2.21,-0.20266175270080566,
2.2124999999999999,-0.14659921824932098,,2.2124999999999999,-0.20295023918151855,
2.2149999999999999,-0.14662325382232666,,2.2149999999999999,-0.20331084728240967,
2.2174999999999998,-0.14626264572143555,,2.2174999999999998,-0.20405611395835876,
2.2200000000000002,-0.14566163718700409,,2.2200000000000002,-0.20422439277172089,
2.2225000000000001,-0.14436344802379608,,2.2225000000000001,-0.20420035719871521,
2.2250000000000001,-0.14397880434989929,,2.2250000000000001,-0.203935906291008,
2.2275,-0.14385859668254852,,2.2275,-0.20266175270080566,
2.23,-0.14405092597007751,,2.23,-0.20172417163848877,
2.2324999999999999,-0.14491638541221619,,2.2324999999999999,-0.20061831176280975,
2.2349999999999999,-0.14530102908611298,,2.2349999999999999,-0.19936820864677429,
2.2374999999999998,-0.14539718627929688,,2.2374999999999998,-0.19648334383964539,
2.2400000000000002,-0.14503657817840576,,2.2400000000000002,-0.19484858214855194,
2.2425000000000002,-0.14248828589916229,,2.2425000000000002,-0.19304554164409637,
2.2450000000000001,-0.14025251567363739,,2.2450000000000001,-0.19105017185211182,
2.2475000000000001,-0.13753592967987061,,2.2475000000000001,-0.1866748034954071,
2.25,-0.13448278605937958,,2.25,-0.18441498279571533,
2.2524999999999999,-0.12830436229705811,,2.2524999999999999,-0.1822032630443573,
2.2549999999999999,-0.12570798397064209,,2.2549999999999999,-0.18018385767936707,
2.2574999999999998,-0.12368857860565186,,2.2574999999999998,-0.17710666358470917,
2.2599999999999998,-0.12246251106262207,,2.2599999999999998,-0.17621716856956482,
2.2625000000000002,-0.12253463268280029,,2.2625000000000002,-0.17583250999450684,
2.2650000000000001,-0.12376070022583008,,2.2650000000000001,-0.17590463161468506,
2.2675000000000001,-0.12556374073028564,,2.2675000000000001,-0.17720282077789307,
2.27,-0.12772738933563232,,2.27,-0.17821252346038818,
2.2725,-0.13188640773296356,,2.2725,-0.1792222261428833,
2.2749999999999999,-0.13323268294334412,,2.2749999999999999,-0.18008768558502197,
2.2774999999999999,-0.13376156985759735,,2.2774999999999999,-0.18054446578025818,
2.2799999999999998,-0.13318459689617157,,2.2799999999999998,-0.17975112795829773,
2.2825000000000002,-0.12835244834423065,,2.2825000000000002,-0.17806828022003174,
2.2850000000000001,-0.12412130832672119,,2.2850000000000001,-0.17537574470043182,
2.2875000000000001,-0.11883239448070526,,2.2875000000000001,-0.167009636759758,
2.29,-0.11282225698232651,,2.29,-0.16157647967338562,
2.2925,-0.099864408373832703,,2.2925,-0.15563845634460449,
2.2949999999999999,-0.093734070658683777,,2.2949999999999999,-0.14953216910362244,
2.2974999999999999,-0.088324949145317078,,2.2974999999999999,-0.13852159678936005,
2.2999999999999998,-0.083973608911037445,,2.2999999999999998,-0.1344587504863739,
2.3025000000000002,-0.079285703599452972,,2.3025000000000002,-0.13183832168579102,
2.3050000000000002,-0.079141460359096527,,2.3050000000000002,-0.13087670505046844,
2.3075000000000001,-0.080415606498718262,,2.3075000000000001,-0.13421833515167236,
2.3100000000000001,-0.082939863204956055,,2.3100000000000001,-0.13825714588165283,
2.3125,-0.090825162827968597,,2.3125,-0.14349798858165741,
2.3149999999999999,-0.095681354403495789,,2.3149999999999999,-0.14953216910362244,
2.3174999999999999,-0.10077794641256332,,2.3174999999999999,-0.16244193911552429,
2.3199999999999998,-0.10594666004180908,,2.3199999999999998,-0.16857227683067322,
2.3224999999999998,-0.11589944362640381,,2.3224999999999998,-0.17412564158439636,
2.3250000000000002,-0.12058734893798828,,2.3250000000000002,-0.17898182570934296,
2.3275000000000001,-0.12505888938903809,,2.3275000000000001,-0.18650650978088379,
2.3300000000000001,-0.12938618659973145,,2.3300000000000001,-0.1892952173948288,
2.3325,-0.13760805130004883,,2.3325,-0.1916271448135376,
2.335,-0.14150261878967285,,2.335,-0.19362251460552216,
2.3374999999999999,-0.14522890746593475,,2.3374999999999999,-0.19679586589336395,
2.3399999999999999,-0.14866670966148376,,2.3399999999999999,-0.19804596900939941,
2.3424999999999998,-0.15417198836803436,,2.3424999999999998,-0.19898355007171631,
2.3450000000000002,-0.15597502887248993,,2.3450000000000002,-0.19953648746013641,
2.3475000000000001,-0.15696069598197937,,2.3475000000000001,-0.19883930683135986,
2.3500000000000001,-0.15703281760215759,,2.3500000000000001,-0.19737283885478973,
2.3525,-0.15426814556121826,,2.3525,-0.19511303305625916,
2.355,-0.15155157446861267,,2.355,-0.19210796058177948,
2.3574999999999999,-0.14811377227306366,,2.3574999999999999,-0.18489579856395721,
2.3599999999999999,-0.14426729083061218,,2.3599999999999999,-0.1815541684627533,
2.3624999999999998,-0.13710319995880127,,2.3624999999999998,-0.17919819056987762,
2.3650000000000002,-0.13498763740062714,,2.3650000000000002,-0.1785731315612793,
2.3675000000000002,-0.13472318649291992,,2.3675000000000002,-0.18559297919273376,
2.3700000000000001,-0.13710319995880127,,2.3700000000000001,-0.1945120096206665,
2.3725000000000001,-0.15220066905021667,,2.3725000000000001,-0.20751795172691345,
2.375,-0.16571144759654999,,2.375,-0.22451460361480713,
2.3774999999999999,-0.18326103687286377,,2.3774999999999999,-0.26800394058227539,
2.3799999999999999,-0.20432054996490479,,2.3799999999999999,-0.29197236895561218,
2.3824999999999998,-0.25276225805282593,,2.3824999999999998,-0.31497916579246521,
2.3849999999999998,-0.27673065662384033,,2.3849999999999998,-0.33462029695510864,
2.3875000000000002,-0.29757380485534668,,2.3875000000000002,-0.35308343172073364,
2.3900000000000001,-0.31257510185241699,,2.3900000000000001,-0.34630399942398071,
2.3925000000000001,-0.3136809766292572,,2.3925000000000001,-0.32538872957229614,
2.395,-0.29423218965530396,,2.395,-0.28829416632652283,
2.3975,-0.25838774442672729,,2.3975,-0.16157647967338562,
2.3999999999999999,-0.2046811580657959,,2.3999999999999999,-0.072626471519470215,
2.4024999999999999,-0.042936407029628754,,2.4024999999999999,0.030675729736685753,
2.4049999999999998,0.062216918915510178,,2.4049999999999998,0.1445317268371582,
2.4075000000000002,0.17917415499687195,,2.4075000000000002,0.38190802931785583,
2.4100000000000001,0.30288678407669067,,2.4100000000000001,0.49198967218399048,
2.4125000000000001,0.54463845491409302,,2.4125000000000001,0.58668535947799683,
2.415,0.64803683757781982,,2.415,0.65914356708526611,
2.4175,0.73008716106414795,,2.4175,0.71609556674957275,
2.4199999999999999,0.78456306457519531,,2.4199999999999999,0.69493991136550903,
2.4224999999999999,0.79463601112365723,,2.4224999999999999,0.64099293947219849,
2.4249999999999998,0.74787718057632446,,2.4249999999999998,0.5576203465461731,
2.4275000000000002,0.66940885782241821,,2.4275000000000002,0.32750427722930908,
2.4300000000000002,0.56435167789459229,,2.4300000000000002,0.19679586589336395,
2.4325000000000001,0.30468982458114624,,2.4325000000000001,0.067265436053276062,
2.4350000000000001,0.1675625741481781,,2.4350000000000001,-0.052985351532697678,
2.4375,0.037166677415370941,,2.4375,-0.24119874835014343,
2.4399999999999999,-0.079069338738918304,,2.4399999999999999,-0.30214151740074158,
2.4424999999999999,-0.24896383285522461,,2.4424999999999999,-0.34012556076049805,
2.4449999999999998,-0.29834312200546265,,2.4449999999999998,-0.35719436407089233,
2.4474999999999998,-0.32490789890289307,,2.4474999999999998,-0.3436114490032196,
2.4500000000000002,-0.33171138167381287,,2.4500000000000002,-0.32228749990463257,
2.4525000000000001,-0.30375224351882935,,2.4525000000000001,-0.29738149046897888,
2.4550000000000001,-0.27867794036865234,,2.4550000000000001,-0.27264377474784851,
2.4575,-0.25211316347122192,,2.4575,-0.23333749175071716,
2.46,-0.22735139727592468,,2.46,-0.2208123654127121,
2.4624999999999999,-0.1907857358455658,,2.4624999999999999,-0.21275877952575684,
2.4649999999999999,-0.1800636500120163,,2.4649999999999999,-0.20819108188152313,
2.4674999999999998,-0.17366886138916016,,2.4674999999999998,-0.20446479320526123,
2.4700000000000002,-0.17047147452831268,,2.4700000000000002,-0.20295023918151855,
2.4725000000000001,-0.1684039831161499,,2.4725000000000001,-0.20059427618980408,
2.4750000000000001,-0.16739428043365479,,2.4750000000000001,-0.1970362663269043,
2.4775,-0.165519118309021,,2.4775,-0.1866748034954071,
2.48,-0.16251406073570251,,2.48,-0.18052041530609131,
2.4824999999999999,-0.15369117259979248,,2.4824999999999999,-0.17431795597076416,
2.4849999999999999,-0.148546501994133,,2.4849999999999999,-0.16852419078350067,
2.4874999999999998,-0.14347395300865173,,2.4874999999999998,-0.15912434458732605,
2.4900000000000002,-0.13873796164989471,,2.4900000000000002,-0.15575866401195526,
2.4925000000000002,-0.13118922710418701,,2.4925000000000002,-0.15321037173271179,
2.4950000000000001,-0.12842456996440887,,2.4950000000000001,-0.15131115913391113,
2.4975000000000001,-0.12626092135906219,,2.4975000000000001,-0.14878690242767334,
2.5,-0.12450595945119858,,2.5,-0.14775316417217255,
2.5024999999999999,-0.12162109464406967,,2.5024999999999999,-0.14669537544250488,
2.5049999999999999,-0.12020270526409149,,2.5049999999999999,-0.14549335837364197,
2.5074999999999998,-0.11864006519317627,,2.5074999999999998,-0.14232000708580017,
2.5099999999999998,-0.11686106771230698,,2.5099999999999998,-0.14030060172080994,
2.5125000000000002,-0.11250972747802734,,2.5125000000000002,-0.13794462382793427,
2.5150000000000001,-0.10991334915161133,,2.5150000000000001,-0.13527612388134003,
2.5175000000000001,-0.10712464898824692,,2.5175000000000001,-0.129241943359375,
2.52,-0.10416766256093979,,2.52,-0.12602052092552185,
2.5225,-0.098109446465969086,,2.5225,-0.12279908359050751,
2.5249999999999999,-0.095248624682426453,,2.5249999999999999,-0.11969785392284393,
2.5274999999999999,-0.092580124735832214,,2.5274999999999999,-0.11419256776571274,
2.5299999999999998,-0.090248189866542816,,2.5299999999999998,-0.11190871894359589,
2.5325000000000002,-0.08661806583404541,,2.5325000000000002,-0.10996143519878387,
2.5350000000000001,-0.08524775505065918,,2.5350000000000001,-0.10827859491109848,
2.5375000000000001,-0.084045730531215668,,2.5375000000000001,-0.10529756546020508,
2.54,-0.082843706011772156,,2.54,-0.10373493283987045,
2.5425,-0.07983863353729248,,2.5425,-0.10190784931182861,
2.5449999999999999,-0.077674984931945801,,2.5449999999999999,-0.099744200706481934,
2.5474999999999999,-0.07493436336517334,,2.5474999999999999,-0.094214878976345062,
2.5499999999999998,-0.071568690240383148,,2.5499999999999998,-0.090849205851554871,
2.5525000000000002,-0.063226625323295593,,2.5525000000000002,-0.087171003222465515,
2.5550000000000002,-0.058490633964538574,,2.5550000000000002,-0.083228349685668945,
2.5575000000000001,-0.053634446114301682,,2.5575000000000001,-0.074958406388759613,
2.5600000000000001,-0.048826336860656738,,2.5600000000000001,-0.07072727382183075,
2.5625,-0.040099620819091797,,2.5625,-0.06644805520772934,
2.5649999999999999,-0.036373339593410492,,2.5649999999999999,-0.06212075799703598,
2.5674999999999999,-0.033079784363508224,,2.5674999999999999,-0.053201716393232346,
2.5699999999999998,-0.03014683723449707,,2.5699999999999998,-0.048513811081647873,
2.5724999999999998,-0.024713676422834396,,2.5724999999999998,-0.043633580207824707,
2.5750000000000002,-0.021756689995527267,,2.5750000000000002,-0.038561027497053146,
2.5775000000000001,-0.018366973847150803,,2.5775000000000001,-0.027766823768615723,
2.5800000000000001,-0.014352202415466309,,2.5800000000000001,-0.022117298096418381,
2.5825,-0.0039186081849038601,,2.5825,-0.016347568482160568,
2.585,0.002524256706237793,,2.585,-0.010505716316401958,
2.5874999999999999,0.0096642971038818359,,2.5874999999999999,0.0012260675430297852,
2.5899999999999999,0.017309188842773438,,2.5899999999999999,0.007043878547847271,
2.5924999999999998,0.033368270844221115,,2.5924999999999998,0.012813608162105083,
2.5950000000000002,0.041301649063825607,,2.5950000000000002,0.018559297546744347,
2.5975000000000001,0.048922501504421234,,2.5975000000000001,0.030074715614318848,
2.6000000000000001,0.056110620498657227,,2.6000000000000001,0.035892527550458908,
2.6025,0.069020390510559082,,2.6025,0.041782461106777191,
2.605,0.074766084551811218,,2.605,0.047768555581569672,
2.6074999999999999,0.080127120018005371,,2.6074999999999999,0.059788823127746582,
2.6099999999999999,0.085151597857475281,,2.6099999999999999,0.06570279598236084,
2.6124999999999998,0.094503365457057953,,2.6124999999999998,0.071328282356262207,
2.6150000000000002,0.098878741264343262,,2.6150000000000002,0.076593160629272461,
2.6175000000000002,0.10308583825826645,,2.6175000000000002,0.085367962718009949,
2.6200000000000001,0.10710060596466064,,2.6200000000000001,0.088637471199035645,
2.6225000000000001,0.11433681100606918,,2.6225000000000001,0.091065570712089539,
2.625,0.11751016229391098,,2.625,0.092628203332424164,
2.6274999999999999,0.12034694850444794,,2.6274999999999999,0.093181133270263672,
2.6299999999999999,0.12277504056692123,,2.6299999999999999,0.092243552207946777,
2.6324999999999998,0.12623688578605652,,2.6324999999999998,0.09056071937084198,
2.6349999999999998,0.12707829475402832,,2.6349999999999998,0.08810858428478241,
2.6375000000000002,0.12719850242137909,,2.6375000000000002,0.080968543887138367,
2.6400000000000001,0.12645325064659119,,2.6400000000000001,0.076208516955375671,
2.6425000000000001,0.12181341648101807,,2.6425000000000001,0.070583030581474304,
2.645,0.11765440553426743,,2.645,0.064043998718261719,
2.6475,0.11214911937713623,,2.6475,0.048345528542995453,
2.6499999999999999,0.1052735298871994,,2.6499999999999999,0.03921012207865715,
2.6524999999999999,0.087459489703178406,,2.6524999999999999,0.029377540573477745,
2.6549999999999998,0.076665282249450684,,2.6549999999999998,0.018943946808576584,
2.6575000000000002,0.064813300967216492,,2.6575000000000002,-0.0032454729080200195,
2.6600000000000001,0.051999688148498535,,2.6600000000000001,-0.014760891906917095,
2.6625000000000001,0.024377107620239258,,2.6625000000000001,-0.026396512985229492,
2.665,0.0099527835845947266,,2.665,-0.038104258477687836,
2.6675,-0.00461578369140625,,2.6675,-0.061447620391845703,
2.6699999999999999,-0.019136270508170128,,2.6699999999999999,-0.072939001023769379,
2.6724999999999999,-0.047143500298261642,,2.6724999999999999,-0.084189973771572113,
2.6749999999999998,-0.060269635170698166,,2.6749999999999998,-0.10551393032073975,
2.6775000000000002,-0.072578392922878265,,2.6775000000000002,-0.11537055671215057,
2.6800000000000002,-0.083925530314445496,,2.6800000000000002,-0.1244819164276123,
2.6825000000000001,-0.10354261100292206,,2.6825000000000001,-0.13279995322227478,
2.6850000000000001,-0.11178851127624512,,2.6850000000000001,-0.14022848010063171,
2.6875,-0.11909683793783188,,2.6875,-0.15234491229057312,
2.6899999999999999,-0.12553970515727997,,2.6899999999999999,-0.15710493922233582,
2.6924999999999999,-0.13645410537719727,,2.6924999999999999,-0.16107162833213806,
2.6949999999999998,-0.14119009673595428,,2.6949999999999998,-0.16434113681316376,
2.6974999999999998,-0.14556547999382019,,2.6974999999999998,-0.16912519931793213,
2.7000000000000002,-0.14962832629680634,,2.7000000000000002,-0.17078399658203125,
2.7025000000000001,-0.15688857436180115,,2.7025000000000001,-0.17205815017223358,
2.7050000000000001,-0.15998980402946472,,2.7050000000000001,-0.17301976680755615,
2.7075,-0.16265830397605896,,2.7075,-0.17422179877758026,
2.71,-0.16479790210723877,,2.71,-0.17458240687847137,
2.7124999999999999,-0.16734620928764343,,2.7124999999999999,-0.17489492893218994,
2.7149999999999999,-0.1677548885345459,,2.7149999999999999,-0.17551998794078827,
2.7174999999999998,-0.16763469576835632,,2.7174999999999998,-0.1759527176618576,
2.7200000000000002,-0.16710579395294189,,2.7200000000000002,-0.17643353343009949,
2.7225000000000001,-0.16539892554283142,,2.7225000000000001,-0.1769864559173584,
2.7250000000000001,-0.16455750167369843,,2.7250000000000001,-0.17809233069419861,
2.7275,-0.1639324426651001,,2.7275,-0.1785731315612793,
2.73,-0.16361992061138153,,2.73,-0.17893373966217041,
2.7324999999999999,-0.16434113681316376,,2.7324999999999999,-0.17915010452270508,
2.7349999999999999,-0.16537487506866455,,2.7349999999999999,-0.17924627661705017,
2.7374999999999998,-0.1667211502790451,,2.7374999999999998,-0.17900586128234863,
2.7400000000000002,-0.16991853713989258,,2.7400000000000002,-0.17874142527580261,
2.7425000000000002,-0.17143309116363525,,2.7425000000000002,-0.17840485274791718,
2.7450000000000001,-0.17265915870666504,,2.7450000000000001,-0.17749130725860596,
2.7475000000000001,-0.17352461814880371,,2.7475000000000001,-0.17691433429718018,
2.75,-0.17374098300933838,,2.75,-0.17621716856956482,
2.7524999999999999,-0.17313997447490692,,2.7524999999999999,-0.17542383074760437,
2.7549999999999999,-0.17210623621940613,,2.7549999999999999,-0.17451028525829315,
2.7574999999999998,-0.17080804705619812,,2.7574999999999998,-0.17251491546630859,
2.7599999999999998,-0.16931752860546112,,2.7599999999999998,-0.1715773344039917,
2.7625000000000002,-0.16643266379833221,,2.7625000000000002,-0.1708320826292038,
2.7650000000000001,-0.16527871787548065,,2.7650000000000001,-0.17025510966777802,
2.7675000000000001,-0.16443729400634766,,2.7675000000000001,-0.17054359614849091,
2.77,-0.16386032104492188,,2.77,-0.17126481235027313,
2.7725,-0.16412477195262909,,2.7725,-0.17234663665294647,
2.7749999999999999,-0.16465365886688232,,2.7749999999999999,-0.17369291186332703,
2.7774999999999999,-0.1654229611158371,,2.7774999999999999,-0.17664989829063416,
2.7799999999999998,-0.16720196604728699,,2.7799999999999998,-0.17799615859985352,
2.7825000000000002,-0.16797125339508057,,2.7825000000000002,-0.1790299117565155,
2.7850000000000001,-0.16854822635650635,,2.7850000000000001,-0.17967900633811951,
2.7875000000000001,-0.16878864169120789,,2.7875000000000001,-0.17975112795829773,
2.79,-0.16811549663543701,,2.79,-0.17919819056987762,
2.7925,-0.16717791557312012,,2.7925,-0.1783808171749115,
2.7949999999999999,-0.16587972640991211,,2.7949999999999999,-0.17619311809539795,
2.7974999999999999,-0.16431710124015808,,2.7974999999999999,-0.17499110102653503,
2.7999999999999998,-0.16092738509178162,,2.7999999999999998,-0.1738131046295166,
2.8025000000000002,-0.15938878059387207,,2.8025000000000002,-0.17268320918083191,
2.8050000000000002,-0.15811464190483093,,2.8050000000000002,-0.17162542045116425,
2.8075000000000001,-0.15724918246269226,,2.8075000000000001,-0.16967813670635223,
2.8100000000000001,-0.15681645274162292,,2.8100000000000001,-0.16876459121704102,
2.8125,-0.15734533965587616,,2.8125,-0.16782701015472412,
2.8149999999999999,-0.15816271305084229,,2.8149999999999999,-0.16590377688407898,
2.8174999999999999,-0.15914838016033173,,2.8174999999999999,-0.16484598815441132,
2.8199999999999998,-0.16104757785797119,,2.8199999999999998,-0.16369204223155975,
2.8224999999999998,-0.16164860129356384,,2.8224999999999998,-0.16239385306835175,
2.8250000000000002,-0.16184091567993164,,2.8250000000000002,-0.15953302383422852,
2.8275000000000001,-0.16155242919921875,,2.8275000000000001,-0.15801846981048584,
2.8300000000000001,-0.15965323150157928,,2.8300000000000001,-0.15655200183391571,
2.8325,-0.15816271305084229,,2.8325,-0.15520572662353516,
2.835,-0.15645584464073181,,2.835,-0.15325844287872314,
2.8374999999999999,-0.1547008752822876,,2.8374999999999999,-0.15277764201164246,
2.8399999999999999,-0.1515275239944458,,2.8399999999999999,-0.15270552039146423,
2.8424999999999998,-0.15025338530540466,,2.8424999999999998,-0.15294592082500458,
2.8450000000000002,-0.14926771819591522,,2.8450000000000002,-0.15409986674785614,
2.8475000000000001,-0.148546501994133,,2.8475000000000001,-0.15474896132946014,
2.8500000000000001,-0.14775316417217255,,2.8500000000000001,-0.15520572662353516,
2.8525,-0.14756083488464355,,2.8525,-0.15537402033805847,
2.855,-0.14746467769145966,,2.855,-0.15453259646892548,
2.8574999999999999,-0.14736852049827576,,2.8574999999999999,-0.15349885821342468,
2.8599999999999999,-0.14710406959056854,,2.8599999999999999,-0.15215258300304413,
2.8624999999999998,-0.1468636691570282,,2.8624999999999998,-0.15063802897930145,
2.8650000000000002,-0.14652709662914276,,2.8650000000000002,-0.14775316417217255,
2.8675000000000002,-0.14604628086090088,,2.8675000000000002,-0.14667133986949921,
2.8700000000000001,-0.14465193450450897,,2.8700000000000001,-0.14595012366771698,
2.8725000000000001,-0.14371435344219208,,2.8725000000000001,-0.14561355113983154,
2.875,-0.14263252913951874,,2.875,-0.14580588042736053,
2.8774999999999999,-0.14140646159648895,,2.8774999999999999,-0.14609436690807343,
2.8799999999999999,-0.13893029093742371,,2.8799999999999999,-0.14628669619560242,
2.8824999999999998,-0.1378244161605835,,2.8824999999999998,-0.14628669619560242,
2.8849999999999998,-0.13693492114543915,,2.8849999999999998,-0.14530102908611298,
2.8875000000000002,-0.13635794818401337,,2.8875000000000002,-0.14431536197662354,
2.8900000000000001,-0.13618966937065125,,2.8900000000000001,-0.14308929443359375,
2.8925000000000001,-0.13657431304454803,,2.8925000000000001,-0.14179110527038574,
2.895,-0.13722340762615204,,2.895,-0.13955533504486084,
2.8975,-0.13796865940093994,,2.8975,-0.13893029093742371,
2.8999999999999999,-0.13938705623149872,,2.8999999999999999,-0.13873796164989471,
2.9024999999999999,-0.13979575037956238,,2.9024999999999999,-0.13900241255760193,
2.9049999999999998,-0.13993999361991882,,2.9049999999999998,-0.1405169665813446,
2.9075000000000002,-0.13972362875938416,,2.9075000000000002,-0.14147858321666718,
2.9100000000000001,-0.13842543959617615,,2.9100000000000001,-0.1422959566116333,
2.9125000000000001,-0.13741573691368103,,2.9125000000000001,-0.14282485842704773,
2.915,-0.13630986213684082,,2.915,-0.14244019985198975,
2.9175,-0.1352040022611618,,2.9175,-0.14143049716949463,
2.9199999999999999,-0.13330480456352234,,2.9199999999999999,-0.13993999361991882,
2.9224999999999999,-0.13265570998191833,,2.9224999999999999,-0.13808886706829071,
2.9249999999999998,-0.13229510188102722,,2.9249999999999998,-0.13388177752494812,
2.9275000000000002,-0.132222980260849,,2.9275000000000002,-0.13188640773296356,
2.9300000000000002,-0.13292014598846436,,2.9300000000000002,-0.13013145327568054,
2.9325000000000001,-0.13364136219024658,,2.9325000000000001,-0.12873709201812744,
2.9350000000000001,-0.13448278605937958,,2.9350000000000001,-0.12698213756084442,
2.9375,-0.1353963315486908,,2.9375,-0.12657344341278076,
2.9399999999999999,-0.13695895671844482,,2.9399999999999999,-0.12635707855224609,
2.9424999999999999,-0.13736765086650848,,2.9424999999999999,-0.12628495693206787,
2.9449999999999998,-0.13736765086650848,,2.9449999999999998,-0.12630900740623474,
2.9474999999999998,-0.1368868350982666,,2.9474999999999998,-0.12638112902641296,
2.9500000000000002,-0.13429045677185059,,2.9500000000000002,-0.12652537226676941,
2.9525000000000001,-0.13219892978668213,,2.9525000000000001,-0.12674173712730408,
2.9550000000000001,-0.12965063750743866,,2.9550000000000001,-0.12741486728191376,
2.9575,-0.12674173712730408,,2.9575,-0.12775143980979919,
2.96,-0.12049119174480438,,2.96,-0.12791971862316132,
2.9624999999999999,-0.11751016229391098,,2.9624999999999999,-0.12775143980979919,
2.9649999999999999,-0.11486570537090302,,2.9649999999999999,-0.12563586235046387,
2.9674999999999998,-0.11270205676555634,,2.9674999999999998,-0.12335201352834702,
2.9700000000000002,-0.11037012189626694,,2.9700000000000002,-0.12008249759674072,
2.9725000000000001,-0.11034607887268066,,2.9725000000000001,-0.11585136502981186,
2.9750000000000001,-0.11106729507446289,,2.9750000000000001,-0.10505716502666473,
2.9775,-0.11243760585784912,,2.9775,-0.099022984504699707,
2.98,-0.11657258123159409,,2.98,-0.093036890029907227,
2.9824999999999999,-0.11885643005371094,,2.9824999999999999,-0.087555646896362305,
2.9849999999999999,-0.12097200006246567,,2.9849999999999999,-0.079574190080165863,
2.9874999999999998,-0.12263079732656479,,2.9874999999999998,-0.077699027955532074,
2.9900000000000002,-0.12359242141246796,,2.9900000000000002,-0.077458620071411133,
2.9925000000000002,-0.12255867570638657,,2.9925000000000002,-0.078949138522148132,
2.9950000000000001,-0.12037098407745361,,2.9950000000000001,-0.086497865617275238,
2.9975000000000001,-0.11700531095266342,,2.9975000000000001,-0.092099308967590332,
3,-0.10726889222860336,83.003952026367188,3,-0.098494097590446472,62.240665435791016
3.0024999999999999,-0.10128279775381088,,3.0024999999999999,-0.10532160848379135,
3.0049999999999999,-0.094912052154541016,,3.0049999999999999,-0.11892855167388916,
3.0074999999999998,-0.088517270982265472,,3.0074999999999998,-0.12515506148338318,
3.0099999999999998,-0.076953768730163574,,3.0099999999999998,-0.130732461810112,
3.0125000000000002,-0.07243414968252182,,3.0125000000000002,-0.13561269640922546,
3.0150000000000001,-0.069116555154323578,,3.0150000000000001,-0.14316141605377197,
3.0175000000000001,-0.067169271409511566,,3.0175000000000001,-0.14595012366771698,
3.02,-0.067722201347351074,,3.02,-0.1482580155134201,
3.0225,-0.070174336433410645,,3.0225,-0.15018126368522644,
3.0249999999999999,-0.073924660682678223,,3.0249999999999999,-0.1531141996383667,
3.0274999999999999,-0.078804895281791687,,3.0274999999999999,-0.15414795279502869,
3.0299999999999998,-0.090849205851554871,,3.0299999999999998,-0.15479704737663269,
3.0325000000000002,-0.097508430480957031,,3.0325000000000002,-0.15494129061698914,
3.0350000000000001,-0.10419170558452606,,3.0350000000000001,-0.15294592082500458,
3.0375000000000001,-0.11065860837697983,,3.0375000000000001,-0.15056590735912323,
3.04,-0.12212594598531723,,3.04,-0.14727234840393066,
3.0425,-0.12686192989349365,,3.0425,-0.1432335376739502,
3.0449999999999999,-0.13085266947746277,,3.0449999999999999,-0.13467511534690857,
3.0474999999999999,-0.13409814238548279,,3.0474999999999999,-0.13150176405906677,
3.0499999999999998,-0.13876199722290039,,3.0499999999999998,-0.13022761046886444,
3.0525000000000002,-0.14039675891399384,,3.0525000000000002,-0.13174216449260712,
3.0550000000000002,-0.14169494807720184,,3.0550000000000002,-0.14635881781578064,
3.0575000000000001,-0.14270465075969696,,3.0575000000000001,-0.16035041213035583,
3.0600000000000001,-0.14383456110954285,,3.0600000000000001,-0.17874142527580261,
3.0625,-0.14371435344219208,,3.0625,-0.20088276267051697,
3.0649999999999999,-0.1429450511932373,,3.0649999999999999,-0.25095921754837036,
3.0674999999999999,-0.14133433997631073,,3.0674999999999999,-0.27492761611938477,
3.0699999999999998,-0.13546845316886902,,3.0699999999999998,-0.29485723376274109,
3.0724999999999998,-0.13142964243888855,,3.0724999999999998,-0.30786317586898804,
3.0750000000000002,-0.12722253799438477,,3.0750000000000002,-0.30158859491348267,
3.0775000000000001,-0.12349625676870346,,3.0775000000000001,-0.27704319357872009,
3.0800000000000001,-0.12097200006246567,,3.0800000000000001,-0.2355492115020752,
3.0825,-0.12416939437389374,,3.0825,-0.17612099647521973,
3.085,-0.1314777135848999,,3.085,-0.0048802299425005913,
3.0874999999999999,-0.14352202415466309,,3.0874999999999999,0.10279735177755356,
3.0899999999999999,-0.18179456889629364,,3.0899999999999999,0.22009114921092987,
3.0924999999999998,-0.206724613904953,,3.0924999999999998,0.34147185087203979,
3.0950000000000002,-0.23357789218425751,,3.0950000000000002,0.56956851482391357,
3.0975000000000001,-0.26021480560302734,,3.0975000000000001,0.66173994541168213,
3.1000000000000001,-0.30206939578056335,,3.1000000000000001,0.73020738363265991,
3.1025,-0.31122884154319763,,3.1025,0.76946556568145752,
3.105,-0.30853629112243652,,3.105,0.74823778867721558,
3.1074999999999999,-0.29125115275382996,,3.1074999999999999,0.68777585029602051,
3.1099999999999999,-0.20516197383403778,,3.1099999999999999,0.5983690619468689,
3.1124999999999998,-0.13462702929973602,,3.1124999999999998,0.48614782094955444,
3.1150000000000002,-0.046470366418361664,,3.1150000000000002,0.22535602748394012,
3.1175000000000002,0.057192444801330566,,3.1175000000000002,0.094359122216701508,
3.1200000000000001,0.29569864273071289,,3.1200000000000001,-0.026132067665457726,
3.1225000000000001,0.41972380876541138,,3.1225000000000001,-0.12962660193443298,
3.125,0.53814750909805298,,3.125,-0.27043205499649048,
3.1274999999999999,0.64375758171081543,,3.1274999999999999,-0.30591589212417603,
3.1299999999999999,0.78939521312713623,,3.1299999999999999,-0.32046040892601013,
3.1324999999999998,0.81846022605895996,,3.1324999999999998,-0.31779190897941589,
3.1349999999999998,0.81398868560791016,,3.1349999999999998,-0.27959150075912476,
3.1375000000000002,0.77554786205291748,,3.1375000000000002,-0.25336325168609619,
3.1400000000000001,0.60784101486206055,,3.1400000000000001,-0.22756776213645935,
3.1425000000000001,0.48975390195846558,,3.1425000000000001,-0.20480136573314667,
3.145,0.35916566848754883,,3.145,-0.17326018214225769,
3.1475,0.22480309009552002,,3.1475,-0.16450941562652588,
3.1499999999999999,-0.022141337394714355,,3.1499999999999999,-0.15936474502086639,
3.1524999999999999,-0.12135665118694305,,3.1524999999999999,-0.15664815902709961,
3.1549999999999998,-0.19881527125835419,,3.1549999999999998,-0.15405178070068359,
3.1575000000000002,-0.25317093729972839,,3.1575000000000002,-0.15258531272411346,
3.1600000000000001,-0.29803058505058289,,3.1600000000000001,-0.15046975016593933,
3.1625000000000001,-0.29524189233779907,,3.1625000000000001,-0.14763295650482178,
3.165,-0.28161090612411499,,3.165,-0.14054100215435028,
3.1675,-0.26177746057510376,,3.1675,-0.13674259185791016,
3.1699999999999999,-0.21888911724090576,,3.1699999999999999,-0.13304035365581512,
3.1724999999999999,-0.20100295543670654,,3.1724999999999999,-0.12950639426708221,
3.1749999999999998,-0.18705944716930389,,3.1749999999999998,-0.12291928380727768,
3.1775000000000002,-0.17693838477134705,,3.1775000000000002,-0.11979401111602783,
3.1800000000000002,-0.16489407420158386,,3.1800000000000002,-0.11664470285177231,
3.1825000000000001,-0.16068696975708008,,3.1825000000000001,-0.11351943016052246,
3.1850000000000001,-0.15633563697338104,,3.1850000000000001,-0.10746121406555176,
3.1875,-0.15126308798789978,,3.1875,-0.1047205924987793,
3.1899999999999999,-0.13852159678936005,,3.1899999999999999,-0.10231654345989227,
3.1924999999999999,-0.13150176405906677,,3.1924999999999999,-0.10029713809490204,
3.1949999999999998,-0.12474636733531952,,3.1949999999999998,-0.097484394907951355,
3.1974999999999998,-0.11883239448070526,,3.1974999999999998,-0.096522770822048187,
3.2000000000000002,-0.11082689464092255,,3.2000000000000002,-0.095729433000087738,
3.2025000000000001,-0.10887961089611053,,3.2025000000000001,-0.094888016581535339,
3.2050000000000001,-0.10799010843038559,,3.2050000000000001,-0.093926392495632172,
3.2075,-0.10779778659343719,,3.2075,-0.091137692332267761,
3.21,-0.10779778659343719,,3.21,-0.089286565780639648,
3.2124999999999999,-0.10678808391094208,,3.2124999999999999,-0.087122917175292969,
3.2149999999999999,-0.10522544384002686,,3.2149999999999999,-0.082194611430168152,
3.2174999999999998,-0.10286947339773178,,3.2174999999999998,-0.07955014705657959,
3.2200000000000002,-0.096378527581691742,,3.2200000000000002,-0.076833568513393402,
3.2225000000000001,-0.092772446572780609,,3.2225000000000001,-0.074068903923034668,
3.2250000000000001,-0.089310608804225922,,3.2250000000000001,-0.068251095712184906,
3.2275,-0.086233422160148621,,3.2275,-0.065125823020935059,
3.23,-0.081785917282104492,,3.23,-0.06183227151632309,
3.2324999999999999,-0.080367527902126312,,3.2324999999999999,-0.058370433747768402,
3.2349999999999999,-0.079285703599452972,,3.2349999999999999,-0.054764352738857269,
3.2374999999999998,-0.078396201133728027,,3.2374999999999998,-0.04752814769744873,
3.2400000000000002,-0.076136395335197449,,3.2400000000000002,-0.044066309928894043,
3.2425000000000002,-0.074453555047512054,,3.2425000000000002,-0.040796797722578049,
3.2450000000000001,-0.072313949465751648,,3.2450000000000001,-0.034954946488142014,
3.2475000000000001,-0.069813728332519531,,3.2475000000000001,-0.03231048583984375,
3.25,-0.06423632800579071,,3.25,-0.02969006821513176,
3.2524999999999999,-0.061591863632202148,,3.2524999999999999,-0.026973485946655273,
3.2549999999999999,-0.059308014810085297,,3.2549999999999999,-0.020482540130615234,
3.2574999999999998,-0.057480931282043457,,3.2574999999999998,-0.016443729400634766,
3.2599999999999998,-0.055197082459926605,,3.2599999999999998,-0.011731783859431744,
3.2625000000000002,-0.054451823234558105,,3.2625000000000002,-0.0063467025756835938,
3.2650000000000001,-0.053682528436183929,,3.2650000000000001,0.0062265000306069851,
3.2675000000000001,-0.052552621811628342,,3.2675000000000001,0.013174216262996197,
3.27,-0.050821702927350998,,3.27,0.020338296890258789,
3.2725,-0.044811569154262543,,3.2725,0.02752641960978508,
3.2749999999999999,-0.040388107299804688,,3.2749999999999999,0.04154205322265625,
3.2774999999999999,-0.035123229026794434,,3.2774999999999999,0.04815320298075676,
3.2799999999999998,-0.022934675216674805,,3.2799999999999998,0.054451823234558105,
3.2825000000000002,-0.01646777056157589,,3.2825000000000002,0.060461960732936859,
3.2850000000000001,-0.010097026824951172,,3.2850000000000001,0.071809098124504089,
3.2875000000000001,-0.0039907298050820827,,3.2875000000000001,0.077218219637870789,
3.29,0.0073323650285601616,,3.29,0.082555219531059265,
3.2925,0.012573203071951866,,3.2925,0.087772011756896973,
3.2949999999999999,0.017693838104605675,,3.2949999999999999,0.097796916961669922,
3.2974999999999999,0.022814473137259483,,3.2974999999999999,0.10250886529684067,
3.2999999999999998,0.028079351410269737,,3.2999999999999998,0.10690828412771225,
3.3025000000000002,0.039450526237487793,,3.3025000000000002,0.11092305183410645,
3.3050000000000002,0.045580863952636719,,3.3050000000000002,0.1145050972700119,
3.3075000000000001,0.051903527230024338,,3.3075000000000001,0.12003441900014877,
3.3100000000000001,0.064765214920043945,,3.3100000000000001,0.12193362414836884,
3.3125,0.07101576030254364,,3.3125,0.12325584888458252,
3.3149999999999999,0.077025890350341797,,3.3149999999999999,0.12397706508636475,
3.3174999999999999,0.08269946277141571,,3.3174999999999999,0.12330393493175507,
3.3199999999999998,0.093253254890441895,,3.3199999999999998,0.12190958112478256,
3.3224999999999998,0.098397932946681976,,3.3224999999999998,0.11967381089925766,
3.3250000000000002,0.10375897586345673,,3.3250000000000002,0.112269327044487,
3.3275000000000001,0.10962486267089844,,3.3275000000000001,0.10688424110412598,
3.3300000000000001,0.12397706508636475,,3.3300000000000001,0.10022501647472382,
3.3325,0.132872074842453,,3.3325,0.092267595231533051,
3.335,0.14292101562023163,,3.335,0.072458192706108093,
3.3374999999999999,0.15395562350749969,,3.3374999999999999,0.060822568833827972,
3.3399999999999999,0.17693838477134705,,3.3399999999999999,0.048249363899230957,
3.3424999999999998,0.18742005527019501,,3.3424999999999998,0.035003028810024261,
3.3450000000000002,0.19597849249839783,,3.3450000000000002,0.0076448917388916016,
3.3475000000000001,0.20170013606548309,,3.3475000000000001,-0.0058658919297158718,
3.3500000000000001,0.20143568515777588,,3.3500000000000001,-0.018967986106872559,
3.3525,0.19463221728801727,,3.3525,-0.031420987099409103,
3.355,0.18342933058738708,,3.355,-0.053946971893310547,
3.3574999999999999,0.16845206916332245,,3.3574999999999999,-0.063899755477905273,
3.3599999999999999,0.13152579963207245,,3.3599999999999999,-0.073011122643947601,
3.3624999999999998,0.1123654842376709,,3.3624999999999998,-0.081353187561035156,
3.3650000000000002,0.094599530100822449,,3.3650000000000002,-0.095921754837036133,
3.3675000000000002,0.079309746623039246,,3.3675000000000002,-0.10234057903289795,
3.3700000000000001,0.058322351425886154,,3.3700000000000001,-0.10823051631450653,
3.3725000000000001,0.052192013710737228,,3.3725000000000001,-0.11371175944805145,
3.375,0.047768555581569672,,3.375,-0.11878430843353271,
3.3774999999999999,0.043633580207824707,,3.3774999999999999,-0.12796780467033386,
3.3799999999999999,0.030026635155081749,,3.3799999999999999,-0.13212680816650391,
3.3824999999999998,0.018102526664733887,,3.3824999999999998,-0.1360454261302948,
3.3849999999999998,0.0019713244400918484,,3.3849999999999998,-0.14311334490776062,
3.3875000000000002,-0.018054446205496788,,3.3875000000000002,-0.14619052410125732,
3.3900000000000001,-0.065053701400756836,,3.3900000000000001,-0.14888307452201843,
3.3925000000000001,-0.088373027741909027,,3.3925000000000001,-0.15114288032054901,
3.395,-0.10875940322875977,,3.395,-0.15402774512767792,
3.3975,-0.12431363761425018,,3.3975,-0.15462875366210938,
3.3999999999999999,-0.13611754775047302,,3.3999999999999999,-0.15465280413627625,
3.4024999999999999,-0.13169407844543457,,3.4024999999999999,-0.15422007441520691,
3.4049999999999998,-0.12128452956676483,,3.4049999999999998,-0.15251319110393524,
3.4075000000000002,-0.1063072681427002,,3.4075000000000002,-0.15159964561462402,
3.4100000000000001,-0.070486865937709808,,3.4100000000000001,-0.15090247988700867,
3.4125000000000001,-0.053706567734479904,,3.4125000000000001,-0.15054187178611755,
3.415,-0.040147703140974045,,3.415,-0.15111884474754333,
3.4175,-0.031204622238874435,,3.4175,-0.15198430418968201,
3.4199999999999999,-0.030050676316022873,,3.4199999999999999,-0.15309016406536102,
3.4224999999999999,-0.037911932915449142,,3.4224999999999999,-0.15424410998821259,
3.4249999999999998,-0.050581298768520355,,3.4249999999999998,-0.15604715049266815,
3.4275000000000002,-0.06678462028503418,,3.4275000000000002,-0.15640775859355927,
3.4300000000000002,-0.10301371663808823,,3.4300000000000002,-0.15633563697338104,
3.4325000000000001,-0.11921703815460205,,3.4325000000000001,-0.15585482120513916,
3.4350000000000001,-0.13159792125225067,,3.4350000000000001,-0.15407583117485046,
3.4375,-0.13876199722290039,,3.4375,-0.15304207801818848,
3.4399999999999999,-0.1346510648727417,,3.4399999999999999,-0.15210449695587158,
3.4424999999999999,-0.12414535135030746,,3.4424999999999999,-0.15138328075408936,
3.4449999999999998,-0.10984122753143311,,3.4449999999999998,-0.15056590735912323,
3.4474999999999998,-0.093926392495632172,,3.4474999999999998,-0.15042166411876678,
3.4500000000000002,-0.066688463091850281,,3.4500000000000002,-0.15030145645141602,
3.4525000000000001,-0.059259932488203049,,3.4525000000000001,-0.15010914206504822,
3.4550000000000001,-0.057144366204738617,,3.4550000000000001,-0.1497485339641571,
3.4575,-0.059909027069807053,,3.4575,-0.14823397994041443,
3.46,-0.07277071475982666,,3.46,-0.14710406959056854,
3.4624999999999999,-0.077602863311767578,,3.4624999999999999,-0.14582991600036621,
3.4649999999999999,-0.077771149575710297,,3.4649999999999999,-0.14328162372112274,
3.4674999999999998,-0.071304246783256531,,3.4674999999999998,-0.14224788546562195,
3.4700000000000002,-0.037166677415370941,,3.4700000000000002,-0.1415507048368454,
3.4725000000000001,-0.012428959831595421,,3.4725000000000001,-0.14119009673595428,
3.4750000000000001,0.013270378112792969,,3.4750000000000001,-0.14152666926383972,
3.4775,0.035916566848754883,,3.4775,-0.14205555617809296,
3.48,0.056807797402143478,,3.48,-0.14260849356651306,
3.4824999999999999,0.04969179630279541,,3.4824999999999999,-0.14311334490776062,
3.4849999999999999,0.029786229133605957,,3.4849999999999999,-0.14332970976829529,
3.4874999999999998,-0.0016107162227854133,,3.4874999999999998,-0.14289698004722595,
3.4900000000000002,-0.086521908640861511,,3.4900000000000002,-0.14215171337127686,
3.4925000000000002,-0.13174216449260712,,3.4925000000000002,-0.14109393954277039,
3.4950000000000001,-0.17299573123455048,,3.4950000000000001,-0.13861775398254395,
3.4975000000000001,-0.206724613904953,,3.4975000000000001,-0.13743977248668671,
3.5,-0.24280945956707001,,3.5,-0.13645410537719727,
3.5024999999999999,-0.24415573477745056,,3.5024999999999999,-0.13578097522258759,
3.5049999999999999,-0.23578962683677673,,3.5049999999999999,-0.13527612388134003,
3.5074999999999998,-0.2198747843503952,,3.5074999999999998,-0.13534824550151825,
3.5099999999999998,-0.17633736133575439,,3.5099999999999998,-0.13551652431488037,
3.5125000000000002,-0.15407583117485046,,3.5125000000000002,-0.13563673198223114,
3.5150000000000001,-0.13450682163238525,,3.5150000000000001,-0.13558864593505859,
3.5175000000000001,-0.11904875934123993,,3.5175000000000001,-0.13477127254009247,
3.52,-0.10306179523468018,,3.52,-0.1339058130979538,
3.5225,-0.10214825719594955,,3.5225,-0.13279995322227478,
3.5249999999999999,-0.10488887876272202,,3.5249999999999999,-0.13010740280151367,
3.5274999999999999,-0.11005759239196777,,3.5274999999999999,-0.12868902087211609,
3.5299999999999998,-0.12217402458190918,,3.5299999999999998,-0.12731871008872986,
3.5325000000000002,-0.12657344341278076,,3.5325000000000002,-0.12609264254570007,
3.5350000000000001,-0.128592848777771,,3.5350000000000001,-0.12412130832672119,
3.5375000000000001,-0.12777547538280487,,3.5375000000000001,-0.12337605655193329,
3.54,-0.11811117827892303,,3.54,-0.12279908359050751,
3.5425,-0.11056244373321533,,3.5425,-0.12239038944244385,
3.5449999999999999,-0.10258098691701889,,3.5449999999999999,-0.12200574576854706,
3.5474999999999999,-0.095392867922782898,,3.5474999999999999,-0.12207786738872528,
3.5499999999999998,-0.087627768516540527,,3.5499999999999998,-0.12229423224925995,
3.5525000000000002,-0.088421106338500977,,3.5525000000000002,-0.12270291894674301,
3.5550000000000002,-0.092483960092067719,,3.5550000000000002,-0.12378474324941635,
3.5575000000000001,-0.09938359260559082,,3.5575000000000001,-0.12433767318725586,
3.5600000000000001,-0.11796693503856659,,3.5600000000000001,-0.12479444593191147,
3.5625,-0.12724658846855164,,3.5625,-0.12501081824302673,
3.5649999999999999,-0.13493955135345459,,3.5649999999999999,-0.12445788085460663,
3.5674999999999999,-0.1400601863861084,,3.5674999999999999,-0.12359242141246796,
3.5699999999999998,-0.1405169665813446,,3.5699999999999998,-0.12231826782226562,
3.5724999999999998,-0.13573288917541504,,3.5724999999999998,-0.12073159217834473,
3.5750000000000002,-0.12811204791069031,,3.5750000000000002,-0.11707743257284164,
3.5775000000000001,-0.11837562173604965,,3.5775000000000001,-0.11537055671215057,
3.5800000000000001,-0.095873676240444183,,3.5800000000000001,-0.11392812430858612,
3.5825,-0.084670782089233398,,3.5825,-0.112918421626091,
3.585,-0.074357390403747559,,3.585,-0.11260589212179184,
3.5874999999999999,-0.065390273928642273,,3.5874999999999999,-0.11335115134716034,
3.5899999999999999,-0.052384339272975922,,3.5899999999999999,-0.1146012544631958,
3.5924999999999998,-0.048513811081647873,,3.5924999999999998,-0.11621197313070297,
3.5950000000000002,-0.046398244798183441,,3.5950000000000002,-0.11979401111602783,
3.5975000000000001,-0.04598955437541008,,3.5975000000000001,-0.12128452956676483,
3.6000000000000001,-0.050004325807094574,,3.6000000000000001,-0.12231826782226562,
3.6025,-0.05413929745554924,,3.6025,-0.12272696197032928,
3.605,-0.059476297348737717,,3.605,-0.12147685140371323,
3.6074999999999999,-0.06565471738576889,,3.6074999999999999,-0.11998634040355682,
3.6099999999999999,-0.078925095498561859,,3.6099999999999999,-0.11808713525533676,
3.6124999999999998,-0.084983311593532562,,3.6124999999999998,-0.1160917729139328,
3.6150000000000002,-0.090031825006008148,,3.6150000000000002,-0.11279821395874023,
3.6175000000000002,-0.09368598461151123,,3.6175000000000002,-0.11190871894359589,
3.6200000000000001,-0.096114084124565125,,3.6200000000000001,-0.11174043267965317,
3.6225000000000001,-0.095104381442070007,,3.6225000000000001,-0.11224528402090073,
3.625,-0.093157097697257996,,3.625,-0.11481761932373047,
3.6274999999999999,-0.090777084231376648,,3.6274999999999999,-0.11638025939464569,
3.6299999999999999,-0.087243124842643738,,3.6299999999999999,-0.1177746057510376,
3.6324999999999998,-0.08702675998210907,,3.6324999999999998,-0.11873622983694077,
3.6349999999999998,-0.088132619857788086,,3.6349999999999998,-0.1185198649764061,
3.6375000000000002,-0.090464554727077484,,3.6375000000000002,-0.11722167581319809,
3.6400000000000001,-0.097195908427238464,,3.6400000000000001,-0.11517822742462158,
3.6425000000000001,-0.10046541690826416,,3.6425000000000001,-0.11260589212179184,
3.645,-0.10294159501791,,3.645,-0.10659575462341309,
3.6475,-0.10431190580129623,,3.6475,-0.10361473262310028,
3.6499999999999999,-0.10366281121969223,,3.6499999999999999,-0.10094623267650604,
3.6524999999999999,-0.102292500436306,,3.6524999999999999,-0.09871046245098114,
3.6549999999999998,-0.10087411105632782,,3.6549999999999998,-0.09584963321685791,
3.6575000000000002,-0.10003268718719482,,3.6575000000000002,-0.095296703279018402,
3.6600000000000001,-0.10140299797058105,,3.6600000000000001,-0.095296703279018402,
3.6625000000000001,-0.10361473262310028,,3.6625000000000001,-0.095897719264030457,
3.665,-0.10628323256969452,,3.665,-0.098638340830802917,
3.6675,-0.10866324603557587,,3.6675,-0.10063370317220688,
3.6699999999999999,-0.10924021899700165,,3.6699999999999999,-0.10286947339773178,
3.6724999999999999,-0.10604282468557358,,3.6724999999999999,-0.10515332221984863,
3.6749999999999998,-0.10003268718719482,,3.6749999999999998,-0.10868728160858154,
3.6775000000000002,-0.091402135789394379,,3.6775000000000002,-0.10926425457000732,
3.6800000000000002,-0.068587660789489746,,3.6800000000000002,-0.10863920301198959,
3.6825000000000001,-0.056182742118835449,,3.6825000000000001,-0.10649959743022919,
3.6850000000000001,-0.044450961053371429,,3.6850000000000001,-0.097484394907951355,
3.6875,-0.034185647964477539,,3.6875,-0.090777084231376648,
3.6899999999999999,-0.020314257591962814,,3.6899999999999999,-0.083036027848720551,
3.6924999999999999,-0.016972621902823448,,3.6924999999999999,-0.074766084551811218,
3.6949999999999998,-0.015866756439208984,,3.6949999999999998,-0.058899324387311935,
3.6974999999999998,-0.016563933342695236,,3.6974999999999998,-0.052456460893154144,
3.7000000000000002,-0.021900933235883713,,3.7000000000000002,-0.047600269317626953,
3.7025000000000001,-0.025867622345685959,,3.7025000000000001,-0.044643282890319824,
3.7050000000000001,-0.030363202095031738,,3.7050000000000001,-0.044715404510498047,
3.7075,-0.035147272050380707,,3.7075,-0.047480069100856781,
3.71,-0.044691365212202072,,3.71,-0.051711201667785645,
3.7124999999999999,-0.048658054322004318,,3.7124999999999999,-0.057072244584560394,
3.7149999999999999,-0.051374636590480804,,3.7149999999999999,-0.069693528115749359,
3.7174999999999998,-0.052288174629211426,,3.7174999999999998,-0.076328717172145844,
3.7200000000000002,-0.046494405716657639,,3.7200000000000002,-0.082843706011772156,
3.7225000000000001,-0.039234161376953125,,3.7225000000000001,-0.089046165347099304,
3.7250000000000001,-0.029209256172180176,,3.7250000000000001,-0.10010480880737305,
3.7275,-0.016924541443586349,,3.7275,-0.10484080016613007,
3.73,0.010698040947318077,,3.73,-0.10902385413646698,
3.7324999999999999,0.023752054199576378,,3.7324999999999999,-0.11267801374197006,
3.7349999999999999,0.034786663949489594,,3.7349999999999999,-0.11856794357299805,
3.7374999999999998,0.042984485626220703,,3.7374999999999998,-0.12092392146587372,
3.7400000000000002,0.04935523122549057,,3.7400000000000002,-0.1229914054274559,
3.7425000000000002,0.047912798821926117,,3.7425000000000002,-0.12474636733531952,
3.7450000000000001,0.044330757111310959,,3.7450000000000001,-0.12719850242137909,
3.7475000000000001,0.039666891098022461,,3.7475000000000001,-0.12763123214244843,
3.75,0.031613312661647797,,3.75,-0.12729465961456299,
3.7524999999999999,0.030098756775259972,,3.7524999999999999,-0.12602052092552185,
3.7549999999999999,0.031012296676635742,,3.7549999999999999,-0.12015461921691895,
3.7574999999999998,0.03442605584859848,,3.7574999999999998,-0.11575520038604736,
3.7599999999999998,0.047335825860500336,,3.7599999999999998,-0.11089901626110077,
3.7625000000000002,0.055437486618757248,,3.7625000000000002,-0.1062111109495163,
3.7650000000000001,0.06353914737701416,,3.7650000000000001,-0.10113855451345444,
3.7675000000000001,0.070967674255371094,,3.7675000000000001,-0.10286947339773178,
3.77,0.081737838685512543,,3.77,-0.10875940322875977,
3.7725,0.084790989756584167,,3.7725,-0.11950552463531494,
3.7749999999999999,0.086545944213867188,,3.7749999999999999,-0.15599906444549561,
3.7774999999999999,0.087459489703178406,,3.7774999999999999,-0.1806165874004364,
3.7799999999999998,0.088853836059570312,,3.7799999999999998,-0.20761410892009735,
3.7825000000000002,0.090320311486721039,,3.7825000000000002,-0.23497223854064941,
3.7850000000000001,0.092796489596366882,,3.7850000000000001,-0.28002423048019409,
3.7875000000000001,0.096330448985099792,,3.7875000000000001,-0.29175600409507751,
3.79,0.10609090328216553,,3.79,-0.29230892658233643,
3.7925,0.11145194619894028,,3.7925,-0.27887028455734253,
3.7949999999999999,0.1162840947508812,,3.7949999999999999,-0.20182034373283386,
3.7974999999999999,0.11972188949584961,,3.7974999999999999,-0.1360454261302948,
3.7999999999999998,0.11868815124034882,,3.7999999999999998,-0.052384339272975922,
3.8025000000000002,0.11243760585784912,,3.8025000000000002,0.047335825860500336,
3.8050000000000002,0.1014510840177536,,3.8050000000000002,0.28079351782798767,
3.8075000000000001,0.085367962718009949,,3.8075000000000001,0.40414553880691528,
3.8100000000000001,0.038609109818935394,,3.8100000000000001,0.52319431304931641,
3.8125,0.0098085403442382812,,3.8125,0.63067954778671265,
3.8149999999999999,-0.020434459671378136,,3.8149999999999999,0.78268790245056152,
3.8174999999999999,-0.049787960946559906,,3.8174999999999999,0.81552726030349731,
3.8199999999999998,-0.094527408480644226,,3.8199999999999998,0.81470990180969238,
3.8224999999999998,-0.10392725467681885,,3.8224999999999998,0.77946645021438599,
3.8250000000000002,-0.10092218965291977,,3.8250000000000002,0.61550998687744141,
3.8275000000000001,-0.083180271089076996,,3.8275000000000001,0.49775940179824829,
3.8300000000000001,0.0024040541611611843,,3.8300000000000001,0.36652207374572754,
3.8325,0.071208082139492035,,3.8325,0.23066899180412292,
3.835,0.15647988021373749,,3.835,-0.020482540130615234,
3.8374999999999999,0.25644046068191528,,3.8374999999999999,-0.12181341648101807,
3.8399999999999999,0.48864802718162537,,3.8399999999999999,-0.20093083381652832,
3.8424999999999998,0.61288952827453613,,3.8424999999999998,-0.25620004534721375,
3.8450000000000002,0.7359049916267395,,3.8450000000000002,-0.28829416632652283,
3.8475000000000001,0.85194867849349976,,3.8475000000000001,-0.294761061668396,
3.8500000000000001,1.0388158559799194,,3.8500000000000001,-0.27783653140068054,
3.8525,1.0979074239730835,,3.8525,-0.25391620397567749,
3.855,1.127549409866333,,3.855,-0.20174822211265564,
3.8574999999999999,1.1245443820953369,,3.8574999999999999,-0.17943859100341797,
3.8599999999999999,1.0179727077484131,,3.8599999999999999,-0.16174475848674774,
3.8624999999999998,0.91904580593109131,,3.8624999999999998,-0.14895519614219666,
3.8650000000000002,0.79663139581680298,,3.8650000000000002,-0.13556461036205292,
3.8675000000000002,0.65851849317550659,,3.8675000000000002,-0.13279995322227478,
3.8700000000000001,0.37159463763237,,3.8700000000000001,-0.13106903433799744,
3.8725000000000001,0.24115066230297089,,3.8725000000000001,-0.12943427264690399,
3.875,0.12993912398815155,,3.875,-0.12428959459066391,
3.8774999999999999,0.043441258370876312,,3.8774999999999999,-0.12039502710103989,
3.8799999999999999,-0.046398244798183441,,3.8799999999999999,-0.11582732200622559,
3.8824999999999998,-0.05180736631155014,,3.8824999999999998,-0.11085093021392822,
3.8849999999999998,-0.036084853112697601,,3.8849999999999998,-0.10577838122844696,
3.8875000000000002,-0.0050004324875771999,,3.8875000000000002,-0.096642971038818359,
3.8900000000000001,0.077458620071411133,,3.8900000000000001,-0.092964768409729004,
3.8925000000000001,0.11705338954925537,,3.8925000000000001,-0.090031825006008148,
3.895,0.14950811862945557,,3.895,-0.086377665400505066,
3.8975,0.17229855060577393,,3.8975,-0.085464119911193848,
3.8999999999999999,0.18641035258769989,,3.8999999999999999,-0.085007354617118835,
3.9024999999999999,0.17999152839183807,,3.9024999999999999,-0.084766946732997894,
3.9049999999999998,0.16768276691436768,,3.9049999999999998,-0.084286138415336609,
3.9075000000000002,0.15234491229057312,,3.9075000000000002,-0.083709165453910828,
3.9100000000000001,0.1237366646528244,,3.9100000000000001,-0.08269946277141571,
3.9125000000000001,0.11491378396749496,,3.9125000000000001,-0.081208944320678711,
3.915,0.11164426803588867,,3.915,-0.076809525489807129,
3.9175,0.11443297564983368,,3.9175,-0.074044868350028992,
3.9199999999999999,0.13671855628490448,,3.9199999999999999,-0.07106383889913559,
3.9224999999999999,0.15402774512767792,,3.9224999999999999,-0.068034730851650238,
3.9249999999999998,0.17347654700279236,,3.9249999999999998,-0.062240958213806152,
3.9275000000000002,0.19335806369781494,,3.9275000000000002,-0.059644579887390137,
3.9300000000000002,0.22838513553142548,,3.9300000000000002,-0.057336688041687012,
3.9325000000000001,0.24127086997032166,,3.9325000000000001,-0.05522112175822258,
3.9350000000000001,0.25031012296676636,,3.9350000000000001,-0.051446758210659027,
3.9375,0.25552690029144287,,3.9375,-0.049619674682617188,
3.9399999999999999,0.25672894716262817,,3.9399999999999999,-0.047672390937805176,
3.9424999999999999,0.25456529855728149,,3.9424999999999999,-0.045556824654340744,
3.9449999999999998,0.25196892023086548,,3.9449999999999998,-0.040628515183925629,
