Data Set 1:Time(s),Data Set 1:EKG(mV),Data Set 1:Heart Rate(bpm)
0,-0.024208825081586838,98.720291137695312
0.0025000000000000001,-0.047888755798339844,
0.0050000000000000001,-0.063755512237548828,
0.0074999999999999997,-0.070751309394836426,
0.01,-0.068876147270202637,
0.012500000000000001,-0.059235893189907074,
0.014999999999999999,-0.0044715404510498047,
0.017500000000000002,0.01430412195622921,
0.02,0.029834311455488205,
0.022499999999999999,0.040868919342756271,
0.025000000000000001,0.04752814769744873,
0.0275,0.043777823448181152,
0.029999999999999999,0.036421418190002441,
0.032500000000000001,0.026540756225585938,
0.035000000000000003,0.0030771892052143812,
0.037499999999999999,-0.0091113653033971786,
0.040000000000000001,-0.021155675873160362,
0.042500000000000003,-0.033079784363508224,
0.044999999999999998,-0.057144366204738617,
0.047500000000000001,-0.069477163255214691,
0.050000000000000003,-0.081906124949455261,
0.052499999999999998,-0.093950435519218445,
0.055,-0.11428873240947723,
0.057500000000000002,-0.12092392146587372,
0.059999999999999998,-0.12424151599407196,
0.0625,-0.12378474324941635,
0.065000000000000002,-0.11174043267965317,
0.067500000000000004,-0.10130684077739716,
0.070000000000000007,-0.089310608804225922,
0.072499999999999995,-0.077073976397514343,
0.074999999999999997,-0.056976079940795898,
0.077499999999999999,-0.051158271729946136,
0.080000000000000002,-0.048898458480834961,
0.082500000000000004,-0.050100486725568771,
0.085000000000000006,-0.060630243271589279,
0.087499999999999994,-0.068058773875236511,
0.089999999999999997,-0.075535379350185394,
0.092499999999999999,-0.082122489809989929,
0.095000000000000001,-0.090392433106899261,
0.097500000000000003,-0.09193103015422821,
0.10000000000000001,-0.092243552207946777,
0.10249999999999999,-0.092075273394584656,
0.105,-0.093469619750976562,
0.1075,-0.096378527581691742,
0.11,-0.10123471915721893,
0.1125,-0.10796606540679932,
0.115,-0.12529930472373962,
0.11749999999999999,-0.13448278605937958,
0.12,-0.14296910166740417,
0.1225,-0.14998893439769745,
0.125,-0.15782615542411804,
0.1275,-0.15828292071819305,
0.13,-0.15664815902709961,
0.13250000000000001,-0.15333056449890137,
0.13500000000000001,-0.1438826322555542,
0.13750000000000001,-0.13905048370361328,
0.14000000000000001,-0.13503572344779968,
0.14249999999999999,-0.13243934512138367,
0.14499999999999999,-0.13352116942405701,
0.14749999999999999,-0.13792058825492859,
0.14999999999999999,-0.14520487189292908,
0.1525,-0.1553499698638916,
0.155,-0.18323700129985809,
0.1575,-0.20006537437438965,
0.16,-0.21785537898540497,
0.16250000000000001,-0.23578962683677673,
0.16500000000000001,-0.26867708563804626,
0.16750000000000001,-0.28201958537101746,
0.17000000000000001,-0.29252529144287109,
0.17249999999999999,-0.29985767602920532,
0.17499999999999999,-0.30514657497406006,
0.17749999999999999,-0.30387243628501892,
0.17999999999999999,-0.30086737871170044,
0.1825,-0.29697281122207642,
0.185,-0.28997701406478882,
0.1875,-0.2882220447063446,
0.19,-0.28812587261199951,
0.1925,-0.28966447710990906,
0.19500000000000001,-0.29584288597106934,
0.19750000000000001,-0.299040287733078,
0.20000000000000001,-0.30120393633842468,
0.20250000000000001,-0.30173283815383911,
0.20499999999999999,-0.29702088236808777,
0.20749999999999999,-0.29252529144287109,
0.20999999999999999,-0.28786143660545349,
0.21249999999999999,-0.28451979160308838,
0.215,-0.28790950775146484,
0.2175,-0.29735743999481201,
0.22,-0.31298381090164185,
0.2225,-0.33476454019546509,
0.22500000000000001,-0.39250990748405457,
0.22750000000000001,-0.42460402846336365,
0.23000000000000001,-0.45537590980529785,
0.23250000000000001,-0.48177242279052734,
0.23499999999999999,-0.50946712493896484,
0.23749999999999999,-0.50535619258880615,
0.23999999999999999,-0.48636418581008911,
0.24249999999999999,-0.45114478468894958,
0.245,-0.33031702041625977,
0.2475,-0.24603089690208435,
0.25,-0.14842629432678223,
0.2525,-0.040748715400695801,
0.255,0.18657863140106201,
0.25750000000000001,0.29488128423690796,
0.26000000000000001,0.39111554622650146,
0.26250000000000001,0.46883863210678101,
0.26500000000000001,0.54677808284759521,
0.26750000000000002,0.53937357664108276,
0.27000000000000002,0.49932202696800232,
0.27250000000000002,0.42816203832626343,
0.27500000000000002,0.21047493815422058,
0.27750000000000002,0.07779519259929657,
0.28000000000000003,-0.059476297348737717,
0.28249999999999997,-0.19239644706249237,
0.28499999999999998,-0.4136415421962738,
0.28749999999999998,-0.49025875329971313,
0.28999999999999998,-0.54016691446304321,
0.29249999999999998,-0.56339007616043091,
0.29499999999999998,-0.54127275943756104,
0.29749999999999999,-0.50588512420654297,
0.29999999999999999,-0.46237170696258545,
0.30249999999999999,-0.41686296463012695,
0.30499999999999999,-0.33971688151359558,
0.3075,-0.31445026397705078,
0.31,-0.29947301745414734,
0.3125,-0.29394370317459106,
0.315,-0.30199727416038513,
0.3175,-0.3096662163734436,
0.32000000000000001,-0.3160129189491272,
0.32250000000000001,-0.3188977837562561,
0.32500000000000001,-0.3107961118221283,
0.32750000000000001,-0.30048272013664246,
0.33000000000000002,-0.28774124383926392,
0.33250000000000002,-0.27437469363212585,
0.33500000000000002,-0.25281032919883728,
0.33750000000000002,-0.24706463515758514,
0.34000000000000002,-0.24535775184631348,
0.34250000000000003,-0.24732908606529236,
0.34499999999999997,-0.25858005881309509,
0.34749999999999998,-0.26543161273002625,
0.34999999999999998,-0.27156195044517517,
0.35249999999999998,-0.27615368366241455,
0.35499999999999998,-0.27925491333007812,
0.35749999999999998,-0.27793270349502563,
0.35999999999999999,-0.27524015307426453,
0.36249999999999999,-0.27173024415969849,
0.36499999999999999,-0.26406130194664001,
0.36749999999999999,-0.26050329208374023,
0.37,-0.25718569755554199,
0.3725,-0.25403639674186707,
0.375,-0.24759352207183838,
0.3775,-0.24405956268310547,
0.38,-0.24038136005401611,
0.38250000000000001,-0.23663103580474854,
0.38500000000000001,-0.22999584674835205,
0.38750000000000001,-0.22759179770946503,
0.39000000000000001,-0.22598108649253845,
0.39250000000000002,-0.22525987029075623,
0.39500000000000002,-0.22586087882518768,
0.39750000000000002,-0.22675037384033203,
0.40000000000000002,-0.22759179770946503,
0.40250000000000002,-0.22812068462371826,
0.40500000000000003,-0.22739946842193604,
0.40749999999999997,-0.22593300044536591,
0.40999999999999998,-0.22374531626701355,
0.41249999999999998,-0.220908522605896,
0.41499999999999998,-0.2138165682554245,
0.41749999999999998,-0.20970563590526581,
0.41999999999999998,-0.20530621707439423,
0.42249999999999999,-0.20057022571563721,
0.42499999999999999,-0.1899443119764328,
0.42749999999999999,-0.18395821750164032,
0.42999999999999999,-0.17751535773277283,
0.4325,-0.17059168219566345,
0.435,-0.15585482120513916,
0.4375,-0.148354172706604,
0.44,-0.14104585349559784,
0.4425,-0.13412217795848846,
0.44500000000000001,-0.12243847548961639,
0.44750000000000001,-0.11808713525533676,
0.45000000000000001,-0.11491378396749496,
0.45250000000000001,-0.11303862184286118,
0.45500000000000002,-0.11330306529998779,
0.45750000000000002,-0.11529843509197235,
0.46000000000000002,-0.11835157871246338,
0.46250000000000002,-0.12219806760549545,
0.46500000000000002,-0.13090074062347412,
0.46750000000000003,-0.13513188064098358,
0.46999999999999997,-0.13890624046325684,
0.47249999999999998,-0.14207959175109863,
0.47499999999999998,-0.14688770473003387,
0.47749999999999998,-0.14900326728820801,
0.47999999999999998,-0.15145540237426758,
0.48249999999999998,-0.15474896132946014,
0.48499999999999999,-0.16549508273601532,
0.48749999999999999,-0.17352461814880371,
0.48999999999999999,-0.18333315849304199,
0.49249999999999999,-0.1947043389081955,
0.495,-0.22035560011863708,
0.4975,-0.23355385661125183,
0.5,-0.24627129733562469,
0.50249999999999995,-0.2580992579460144,
0.505,-0.2783413827419281,
0.50749999999999995,-0.28680366277694702,
0.51000000000000001,-0.29447257518768311,
0.51249999999999996,-0.30163666605949402,
0.51500000000000001,-0.31553208827972412,
0.51749999999999996,-0.32262405753135681,
0.52000000000000002,-0.32981216907501221,
0.52249999999999996,-0.33697625994682312,
0.52500000000000002,-0.35022258758544922,
0.52749999999999997,-0.35577595233917236,
0.53000000000000003,-0.36029559373855591,
0.53249999999999997,-0.36368530988693237,
0.53500000000000003,-0.3670269250869751,
0.53749999999999998,-0.36724328994750977,
0.54000000000000004,-0.36678653955459595,
0.54249999999999998,-0.36589702963829041,
0.54500000000000004,-0.36397379636764526,
0.54749999999999999,-0.36330065131187439,
0.55000000000000004,-0.36303621530532837,
0.55249999999999999,-0.36318045854568481,
0.55500000000000005,-0.36457479000091553,
0.5575,-0.36558449268341064,
0.56000000000000005,-0.36661824584007263,
0.5625,-0.36745965480804443,
0.56499999999999995,-0.36806067824363708,
0.5675,-0.3675798773765564,
0.56999999999999995,-0.36654612421989441,
0.57250000000000001,-0.36498349905014038,
0.57499999999999996,-0.36080044507980347,
0.57750000000000001,-0.35858869552612305,
0.57999999999999996,-0.35656929016113281,
0.58250000000000002,-0.35500666499137878,
0.58499999999999996,-0.35392484068870544,
0.58750000000000002,-0.35454988479614258,
0.58999999999999997,-0.35592019557952881,
0.59250000000000003,-0.35789152979850769,
0.59499999999999997,-0.36272367835044861,
0.59750000000000003,-0.36498349905014038,
0.59999999999999998,-0.36678653955459595,
0.60250000000000004,-0.36791643500328064,
0.60499999999999998,-0.36745965480804443,
0.60750000000000004,-0.36582490801811218,
0.60999999999999999,-0.36334872245788574,
0.61250000000000004,-0.36019942164421082,
0.61499999999999999,-0.35269877314567566,
0.61750000000000005,-0.34880420565605164,
0.62,-0.34510195255279541,
0.62250000000000005,-0.34176033735275269,
0.625,-0.33659160137176514,
0.62749999999999995,-0.33486068248748779,
0.63,-0.33368271589279175,
0.63249999999999995,-0.33296149969100952,
0.63500000000000001,-0.33245664834976196,
0.63749999999999996,-0.33243259787559509,
0.64000000000000001,-0.33240854740142822,
0.64249999999999996,-0.33221623301506042,
0.64500000000000002,-0.33118247985839844,
0.64749999999999996,-0.33017277717590332,
0.65000000000000002,-0.32882651686668396,
0.65249999999999997,-0.32709559798240662,
0.65500000000000003,-0.32252788543701172,
0.65749999999999997,-0.31971514225006104,
0.66000000000000003,-0.31661391258239746,
0.66249999999999998,-0.31332036852836609,
0.66500000000000004,-0.30651688575744629,
0.66749999999999998,-0.30329546332359314,
0.67000000000000004,-0.30036252737045288,
0.67249999999999999,-0.29783827066421509,
0.67500000000000004,-0.29423218965530396,
0.67749999999999999,-0.29310226440429688,
0.68000000000000005,-0.29228490591049194,
0.6825,-0.29161176085472107,
0.68500000000000005,-0.29002508521080017,
0.6875,-0.28877496719360352,
0.68999999999999995,-0.28709214925765991,
0.6925,-0.28492850065231323,
0.69499999999999995,-0.27942320704460144,
0.69750000000000001,-0.27632197737693787,
0.69999999999999996,-0.27324479818344116,
0.70250000000000001,-0.27035993337631226,
0.70499999999999996,-0.26576817035675049,
0.70750000000000002,-0.26425361633300781,
0.70999999999999996,-0.26334008574485779,
0.71250000000000002,-0.26297947764396667,
0.71499999999999997,-0.26353240013122559,
0.71750000000000003,-0.26418149471282959,
0.71999999999999997,-0.26483058929443359,
0.72250000000000003,-0.26545566320419312,
0.72499999999999998,-0.26504695415496826,
0.72750000000000004,-0.26391705870628357,
0.72999999999999998,-0.26194572448730469,
0.73250000000000004,-0.25528651475906372,
0.73499999999999999,-0.25057455897331238,
0.73750000000000004,-0.24514138698577881,
0.73999999999999999,-0.23915529251098633,
0.74250000000000005,-0.22667825222015381,
0.745,-0.22083640098571777,
0.74750000000000005,-0.21573981642723083,
0.75,-0.2116769552230835,
0.75249999999999995,-0.20893633365631104,
0.755,-0.20797471702098846,
0.75749999999999995,-0.20980179309844971,
0.76000000000000001,-0.2130713164806366,
0.76249999999999996,-0.22292792797088623,
0.76500000000000001,-0.22893807291984558,
0.76749999999999996,-0.23521265387535095,
0.77000000000000002,-0.24143914878368378,
0.77249999999999996,-0.25269013643264771,
0.77500000000000002,-0.25737804174423218,
0.77749999999999997,-0.26134473085403442,
0.78000000000000003,-0.26461422443389893,
0.78249999999999997,-0.26949447393417358,
0.78500000000000003,-0.27136963605880737,
0.78749999999999998,-0.27300438284873962,
0.79000000000000004,-0.27442276477813721,
0.79249999999999998,-0.27649027109146118,
0.79500000000000004,-0.27685087919235229,
0.79749999999999999,-0.2765623927116394,
0.80000000000000004,-0.27545651793479919,
0.80249999999999999,-0.27091285586357117,
0.80500000000000005,-0.26790779829025269,
0.8075,-0.265095055103302,
0.81000000000000005,-0.26319584250450134,
0.8125,-0.26574414968490601,
0.81499999999999995,-0.27194660902023315,
0.8175,-0.28230807185173035,
0.81999999999999995,-0.29704493284225464,
0.82250000000000001,-0.33808213472366333,
0.82499999999999996,-0.36197841167449951,
0.82750000000000001,-0.38551411032676697,
0.82999999999999996,-0.40606877207756042,
0.83250000000000002,-0.42587816715240479,
0.83499999999999996,-0.41888236999511719,
0.83750000000000002,-0.39686125516891479,
0.83999999999999997,-0.35781940817832947,
0.84250000000000003,-0.22586087882518768,
0.84499999999999997,-0.13481935858726501,
0.84750000000000003,-0.030795931816101074,
0.84999999999999998,0.081641674041748047,
0.85250000000000004,0.30728620290756226,
0.85499999999999998,0.40654957294464111,
0.85750000000000004,0.48737388849258423,
0.85999999999999999,0.54355663061141968,
0.86250000000000004,0.56495273113250732,
0.86499999999999999,0.52704077959060669,
0.86750000000000005,0.45874160528182983,
0.87,0.36457479000091553,
0.87250000000000005,0.12614071369171143,
0.875,-0.0015866756439208984,
0.87749999999999995,-0.12385686486959457,
0.88,-0.23331344127655029,
0.88249999999999995,-0.39366385340690613,
0.88500000000000001,-0.43991786241531372,
0.88749999999999996,-0.46424686908721924,
0.89000000000000001,-0.46946367621421814,
0.89249999999999996,-0.43977361917495728,
0.89500000000000002,-0.41429063677787781,
0.89749999999999996,-0.38743734359741211,
0.90000000000000002,-0.36241114139556885,
0.90249999999999997,-0.32483577728271484,
0.90500000000000003,-0.31307995319366455,
0.90749999999999997,-0.30521869659423828,
0.91000000000000003,-0.30007404088973999,
0.91249999999999998,-0.29319843649864197,
0.91500000000000004,-0.28973659873008728,
0.91749999999999998,-0.28574585914611816,
0.92000000000000004,-0.28125029802322388,
0.92249999999999999,-0.27216297388076782,
0.92500000000000004,-0.2683645486831665,
0.92749999999999999,-0.2654796838760376,
0.93000000000000005,-0.26358050107955933,
0.9325,-0.26196977496147156,
0.93500000000000005,-0.26158511638641357,
0.9375,-0.26091200113296509,
0.93999999999999995,-0.25963783264160156,
0.9425,-0.25442105531692505,
0.94499999999999995,-0.25052648782730103,
0.94750000000000001,-0.24600684642791748,
0.94999999999999996,-0.24117469787597656,
0.95250000000000001,-0.23208737373352051,
0.95499999999999996,-0.22843322157859802,
0.95750000000000002,-0.22569260001182556,
0.95999999999999996,-0.22388955950737,
0.96250000000000002,-0.22292792797088623,
0.96499999999999997,-0.22333662211894989,
0.96750000000000003,-0.22398571670055389,
0.96999999999999997,-0.22451460361480713,
0.97250000000000003,-0.22458672523498535,
0.97499999999999998,-0.22242307662963867,
0.97750000000000004,-0.21985074877738953,
0.97999999999999998,-0.21624466776847839,
0.98250000000000004,-0.20650824904441833,
0.98499999999999999,-0.20081064105033875,
0.98750000000000004,-0.19496878981590271,
0.98999999999999999,-0.18922309577465057,
0.99250000000000005,-0.17878949642181396,
0.995,-0.17422179877758026,
0.99750000000000005,-0.17001470923423767,
1,-0.16592781245708466,98.36065673828125
1.0024999999999999,-0.15720109641551971,
1.0049999999999999,-0.15208046138286591,
1.0075000000000001,-0.14623861014842987,
1.01,-0.13965150713920593,
1.0125,-0.1246742457151413,
1.0149999999999999,-0.11681298911571503,
1.0175000000000001,-0.1090959757566452,
1.02,-0.10183572769165039,
1.0225,-0.089671216905117035,
1.0249999999999999,-0.084983311593532562,
1.0275000000000001,-0.081160865724086761,
1.03,-0.07808367908000946,
1.0325,-0.07317940890789032,
1.0349999999999999,-0.070895552635192871,
1.0375000000000001,-0.068419381976127625,
1.04,-0.065582595765590668,
1.0425,-0.058490633964538574,
1.0449999999999999,-0.054163336753845215,
1.0475000000000001,-0.049379270523786545,
1.05,-0.044210553169250488,
1.0525,-0.033079784363508224,
1.0549999999999999,-0.027406215667724609,
1.0575000000000001,-0.021949013695120811,
1.0600000000000001,-0.016948580741882324,
1.0625,-0.009447932243347168,
1.0649999999999999,-0.0075487298890948296,
1.0674999999999999,-0.0072121620178222656,
1.0700000000000001,-0.0086786355823278427,
1.0725,-0.017116865143179893,
1.075,-0.024016499519348145,
1.0774999999999999,-0.032430689781904221,
1.0800000000000001,-0.042094986885786057,
1.0825,-0.063995920121669769,
1.085,-0.075607500970363617,
1.0874999999999999,-0.08736332505941391,
1.0900000000000001,-0.09904702752828598,
1.0925,-0.12183745950460434,
1.095,-0.13279995322227478,
1.0974999999999999,-0.14344990253448486,
1.1000000000000001,-0.15373925864696503,
1.1025,-0.17326018214225769,
1.105,-0.18241962790489197,
1.1074999999999999,-0.19112229347229004,
1.1100000000000001,-0.19934415817260742,
1.1125,-0.21422526240348816,
1.115,-0.2208123654127121,
1.1174999999999999,-0.22675037384033203,
1.1200000000000001,-0.23201525211334229,
1.1225000000000001,-0.24033328890800476,
1.125,-0.24331431090831757,
1.1274999999999999,-0.24547795951366425,
1.1299999999999999,-0.2469203919172287,
1.1325000000000001,-0.24790605902671814,
1.135,-0.24776181578636169,
1.1375,-0.2474733293056488,
1.1399999999999999,-0.24718484282493591,
1.1425000000000001,-0.24730503559112549,
1.145,-0.24780988693237305,
1.1475,-0.24862727522850037,
1.1499999999999999,-0.24963697791099548,
1.1525000000000001,-0.2514880895614624,
1.155,-0.25199294090270996,
1.1575,-0.25199294090270996,
1.1599999999999999,-0.2514880895614624,
1.1625000000000001,-0.2490600049495697,
1.165,-0.24744927883148193,
1.1675,-0.24586260318756104,
1.1699999999999999,-0.24451634287834167,
1.1725000000000001,-0.24326622486114502,
1.175,-0.24348258972167969,
1.1775,-0.24417977035045624,
1.1799999999999999,-0.24521350860595703,
1.1825000000000001,-0.24730503559112549,
1.1850000000000001,-0.24788200855255127,
1.1875,-0.24793009459972382,
1.1899999999999999,-0.24730503559112549,
1.1924999999999999,-0.24413168430328369,
1.1950000000000001,-0.24182379245758057,
1.1975,-0.2392755001783371,
1.2,-0.23670315742492676,
1.2024999999999999,-0.23225566744804382,
1.2050000000000001,-0.23057281970977783,
1.2075,-0.22929868102073669,
1.21,-0.2283610999584198,
1.2124999999999999,-0.2268705815076828,
1.2150000000000001,-0.22598108649253845,
1.2175,-0.22477905452251434,
1.22,-0.22316834330558777,
1.2224999999999999,-0.21855255961418152,
1.2250000000000001,-0.21566769480705261,
1.2275,-0.21256646513938904,
1.23,-0.20936906337738037,
1.2324999999999999,-0.20323872566223145,
1.2350000000000001,-0.20052215456962585,
1.2375,-0.19804596900939941,
1.24,-0.19578616321086884,
1.2424999999999999,-0.19155502319335938,
1.2450000000000001,-0.1893913745880127,
1.2475000000000001,-0.18705944716930389,
1.25,-0.18448710441589355,
1.2524999999999999,-0.17869333922863007,
1.2549999999999999,-0.17554402351379395,
1.2575000000000001,-0.1723226010799408,
1.26,-0.16912519931793213,
1.2625,-0.16313910484313965,
1.2649999999999999,-0.16047060489654541,
1.2675000000000001,-0.15804252028465271,
1.27,-0.15583078563213348,
1.2725,-0.15176793932914734,
1.2749999999999999,-0.14979660511016846,
1.2775000000000001,-0.14775316417217255,
1.28,-0.14556547999382019,
1.2825,-0.14046888053417206,
1.2849999999999999,-0.13746380805969238,
1.2875000000000001,-0.13419429957866669,
1.29,-0.1306363046169281,
1.2925,-0.12294332683086395,
1.2949999999999999,-0.11902471631765366,
1.2975000000000001,-0.1152503490447998,
1.3,-0.11181255429983139,
1.3025,-0.10666787624359131,
1.3049999999999999,-0.1052735298871994,
1.3075000000000001,-0.10474463552236557,
1.3100000000000001,-0.10510524362325668,
1.3125,-0.10786990821361542,
1.3149999999999999,-0.10979314893484116,
1.3174999999999999,-0.111620232462883,
1.3200000000000001,-0.112918421626091,
1.3225,-0.11270205676555634,
1.325,-0.1106826514005661,
1.3274999999999999,-0.10722081363201141,
1.3300000000000001,-0.10246078670024872,
1.3325,-0.090007781982421875,
1.335,-0.083060070872306824,
1.3374999999999999,-0.076232552528381348,
1.3400000000000001,-0.070006057620048523,
1.3425,-0.060798525810241699,
1.345,-0.058346390724182129,
1.3474999999999999,-0.057456891983747482,
1.3500000000000001,-0.058105986565351486,
1.3525,-0.063370868563652039,
1.355,-0.067457757890224457,
1.3574999999999999,-0.072073541581630707,
1.3600000000000001,-0.076953768730163574,
1.3625,-0.086353622376918793,
1.365,-0.090464554727077484,
1.3674999999999999,-0.09409467875957489,
1.3700000000000001,-0.097195908427238464,
1.3725000000000001,-0.10207613557577133,
1.375,-0.10411958396434784,
1.3774999999999999,-0.10609090328216553,
1.3799999999999999,-0.10806223005056381,
1.3825000000000001,-0.11212508380413055,
1.385,-0.11402428150177002,
1.3875,-0.1155388355255127,
1.3899999999999999,-0.11642833799123764,
1.3925000000000001,-0.11508207023143768,
1.395,-0.11248569190502167,
1.3975,-0.10866324603557587,
1.3999999999999999,-0.10397534072399139,
1.4025000000000001,-0.094743773341178894,
1.405,-0.092171430587768555,
1.4075,-0.092556081712245941,
1.4099999999999999,-0.097027622163295746,
1.4125000000000001,-0.12135665118694305,
1.415,-0.14159879088401794,
1.4175,-0.16645669937133789,
1.4199999999999999,-0.19436776638031006,
1.4225000000000001,-0.24985334277153015,
1.425,-0.27124941349029541,
1.4275,-0.2837505042552948,
1.4299999999999999,-0.28389474749565125,
1.4325000000000001,-0.23542901873588562,
1.4350000000000001,-0.1830446720123291,
1.4375,-0.11118750274181366,
1.4399999999999999,-0.021203756332397461,
1.4424999999999999,0.20059427618980408,
1.4450000000000001,0.32247981429100037,
1.4475,0.443115234375,
1.45,0.55519223213195801,
1.4524999999999999,0.72479826211929321,
1.4550000000000001,0.76992237567901611,
1.4575,0.78290426731109619,
1.46,0.76215726137161255,
1.4624999999999999,0.62563103437423706,
1.4650000000000001,0.51893913745880127,
1.4675,0.3959236741065979,
1.47,0.26511907577514648,
1.4724999999999999,0.014256040565669537,
1.4750000000000001,-0.090921327471733093,
1.4775,-0.17549595236778259,
1.48,-0.2369435727596283,
1.4824999999999999,-0.29141944646835327,
1.4850000000000001,-0.28976064920425415,
1.4875,-0.27444681525230408,
1.49,-0.25038224458694458,
1.4924999999999999,-0.19405524432659149,
1.4950000000000001,-0.16874055564403534,
1.4975000000000001,-0.14818589389324188,
1.5,-0.1330643892288208,
1.5024999999999999,-0.11791884899139404,
1.5049999999999999,-0.11587540805339813,
1.5075000000000001,-0.11587540805339813,
1.51,-0.11681298911571503,
1.5125,-0.11827945709228516,
1.5149999999999999,-0.11796693503856659,
1.5175000000000001,-0.11676490306854248,
1.52,-0.11474549770355225,
1.5225,-0.10883152484893799,
1.5249999999999999,-0.10520140826702118,
1.5275000000000001,-0.10125875473022461,
1.53,-0.097075700759887695,
1.5325,-0.088300906121730804,
1.5349999999999999,-0.083877444267272949,
1.5375000000000001,-0.079598233103752136,
1.54,-0.071833133697509766,
1.5425,-0.068515539169311523,
1.5449999999999999,-0.065606638789176941,
1.5475000000000001,-0.063106417655944824,
1.55,-0.059043567627668381,
1.5525,-0.057312648743391037,
1.5549999999999999,-0.055677890777587891,
1.5575000000000001,-0.054067175835371017,
1.5600000000000001,-0.052384339272975922,
1.5625,-0.048802297562360764,
1.5649999999999999,-0.046879053115844727,
1.5674999999999999,-0.044931769371032715,
1.5700000000000001,-0.041061244904994965,
1.5725,-0.039162039756774902,
1.575,-0.037334959954023361,
1.5774999999999999,-0.03555595874786377,
1.5800000000000001,-0.032046042382717133,
1.5825,-0.030243000015616417,
1.585,-0.028295716270804405,
1.5874999999999999,-0.026132067665457726,
1.5900000000000001,-0.020819108933210373,
1.5925,-0.017501514405012131,
1.595,-0.013630986213684082,
1.5974999999999999,-0.0092075271531939507,
1.6000000000000001,0.0013943513622507453,
1.6025,0.0074766082689166069,
1.605,0.013943513855338097,
1.6074999999999999,0.020674865692853928,
1.6100000000000001,0.03442605584859848,
1.6125,0.041181445121765137,
1.615,0.047696433961391449,
1.6174999999999999,0.053946971893310547,
1.6200000000000001,0.065486431121826172,
1.6225000000000001,0.070847474038600922,
1.625,0.076040230691432953,
1.6274999999999999,0.081184908747673035,
1.6299999999999999,0.086353622376918793,
1.6325000000000001,0.097123786807060242,
1.635,0.10286947339773178,
1.6375,0.10883152484893799,
1.6399999999999999,0.12111624330282211,
1.6425000000000001,0.12717446684837341,
1.645,0.132872074842453,
1.6475,0.13801674544811249,
1.6499999999999999,0.14573375880718231,
1.6525000000000001,0.14794549345970154,
1.655,0.14890711009502411,
1.6575,0.14857053756713867,
1.6599999999999999,0.14419516921043396,
1.6625000000000001,0.14037272334098816,
1.665,0.13563673198223114,
1.6675,0.13005933165550232,
1.6699999999999999,0.1167408674955368,
1.6725000000000001,0.10899981111288071,
1.675,0.10048945993185043,
1.6775,0.091089606285095215,
1.6799999999999999,0.069405041635036469,
1.6825000000000001,0.057096283882856369,
1.6850000000000001,0.043898027390241623,
1.6875,0.02997855469584465,
1.6899999999999999,0.0011299054604023695,
1.6924999999999999,-0.013102094642817974,
1.6950000000000001,-0.026757121086120605,
1.6975,-0.039522647857666016,
1.7,-0.061519742012023926,
1.7024999999999999,-0.07060706615447998,
1.7050000000000001,-0.078444287180900574,
1.7075,-0.08524775505065918,
1.71,-0.096426606178283691,
1.7124999999999999,-0.10123471915721893,
1.7150000000000001,-0.10568221658468246,
1.7175,-0.10988931357860565,
1.72,-0.11741399765014648,
1.7224999999999999,-0.1206594705581665,
1.7250000000000001,-0.12340009212493896,
1.7275,-0.12565991282463074,
1.73,-0.12736678123474121,
1.7324999999999999,-0.12941023707389832,
1.7350000000000001,-0.13001124560832977,
1.7375,-0.13049206137657166,
1.74,-0.13176620006561279,
1.7424999999999999,-0.13272783160209656,
1.7450000000000001,-0.1339058130979538,
1.7475000000000001,-0.13527612388134003,
1.75,-0.13804078102111816,
1.7524999999999999,-0.13907453417778015,
1.7549999999999999,-0.13969957828521729,
1.7575000000000001,-0.13977169990539551,
1.76,-0.13924281299114227,
1.7625,-0.13647815585136414,
1.7649999999999999,-0.13448278605937958,
1.7675000000000001,-0.13234317302703857,
1.77,-0.12847265601158142,
1.7725,-0.12712638080120087,
1.7749999999999999,-0.12633304297924042,
1.7775000000000001,-0.12618879973888397,
1.78,-0.12767931818962097,
1.7825,-0.12912175059318542,
1.7849999999999999,-0.1308286190032959,
1.7875000000000001,-0.13263165950775146,
1.79,-0.13597330451011658,
1.7925,-0.13734361529350281,
1.7949999999999999,-0.13844947516918182,
1.7975000000000001,-0.13926684856414795,
1.8,-0.14020442962646484,
1.8025,-0.14039675891399384,
1.8049999999999999,-0.14044484496116638,
1.8075000000000001,-0.14034867286682129,
1.8100000000000001,-0.13979575037956238,
1.8125,-0.13929089903831482,
1.8149999999999999,-0.13866584002971649,
1.8174999999999999,-0.13787250220775604,
1.8200000000000001,-0.13698300719261169,
1.8225,-0.13486742973327637,
1.825,-0.1337134838104248,
1.8274999999999999,-0.13253550231456757,
1.8300000000000001,-0.13017952442169189,
1.8325,-0.12902557849884033,
1.835,-0.12796780467033386,
1.8374999999999999,-0.1270061731338501,
1.8400000000000001,-0.12565991282463074,
1.8425,-0.12539546191692352,
1.845,-0.12546758353710175,
1.8474999999999999,-0.12592434883117676,
1.8500000000000001,-0.12775143980979919,
1.8525,-0.12895345687866211,
1.855,-0.13015548884868622,
1.8574999999999999,-0.13116519153118134,
1.8600000000000001,-0.13200661540031433,
1.8625,-0.13162195682525635,
1.865,-0.13068437576293945,
1.8674999999999999,-0.12919387221336365,
1.8700000000000001,-0.12508293986320496,
1.8725000000000001,-0.12275099754333496,
1.875,-0.12039502710103989,
1.8774999999999999,-0.11811117827892303,
1.8799999999999999,-0.11380791664123535,
1.8825000000000001,-0.11171638965606689,
1.885,-0.10955274105072021,
1.8875,-0.10731697082519531,
1.8899999999999999,-0.10241270065307617,
1.8925000000000001,-0.099912486970424652,
1.895,-0.097484394907951355,
1.8975,-0.095368824899196625,
1.8999999999999999,-0.092700324952602386,
1.9025000000000001,-0.092411838471889496,
1.905,-0.092892646789550781,
1.9075,-0.09409467875957489,
1.9099999999999999,-0.09796520322561264,
1.9125000000000001,-0.10010480880737305,
1.915,-0.10193189233541489,
1.9175,-0.10315795987844467,
1.9199999999999999,-0.10265310853719711,
1.9225000000000001,-0.10060966014862061,
1.925,-0.097316108644008636,
1.9275,-0.092892646789550781,
1.9299999999999999,-0.081569552421569824,
1.9325000000000001,-0.075319014489650726,
1.9350000000000001,-0.069188676774501801,
1.9375,-0.063515111804008484,
1.9399999999999999,-0.055004756897687912,
1.9424999999999999,-0.052672825753688812,
1.9450000000000001,-0.05185544490814209,
1.9475,-0.052528582513332367,
1.95,-0.058202147483825684,
1.9524999999999999,-0.062817931175231934,
1.9550000000000001,-0.068299174308776855,
1.9575,-0.074333354830741882,
1.96,-0.086954638361930847,
1.9624999999999999,-0.0930609330534935,
1.9650000000000001,-0.098806619644165039,
1.9675,-0.10407149791717529,
1.97,-0.11299054324626923,
1.9724999999999999,-0.11671682447195053,
1.9750000000000001,-0.11996229737997055,
1.9775,-0.12277504056692123,
1.98,-0.12686192989349365,
1.9824999999999999,-0.12796780467033386,
1.9850000000000001,-0.12823224067687988,
1.9875,-0.12753507494926453,
1.99,-0.12284716218709946,
1.9924999999999999,-0.11900067329406738,
1.9950000000000001,-0.1145050972700119,
1.9975000000000001,-0.1099373921751976,
2,-0.10366281121969223,88.073394775390625
2.0024999999999999,-0.1038791760802269,
2.0049999999999999,-0.10767757892608643,
2.0074999999999998,-0.11585136502981186,
2.0099999999999998,-0.1468636691570282,
2.0125000000000002,-0.1692454069852829,
2.0150000000000001,-0.19484858214855194,
2.0175000000000001,-0.22179803252220154,
2.02,-0.26935023069381714,
2.0225,-0.28365433216094971,
2.0249999999999999,-0.28709214925765991,
2.0274999999999999,-0.27649027109146118,
2.0299999999999998,-0.20321469008922577,
2.0325000000000002,-0.13794462382793427,
2.0350000000000001,-0.053922932595014572,
2.0375000000000001,0.046710770577192307,
2.04,0.28163492679595947,
2.0425,0.40443402528762817,
2.0449999999999999,0.52148741483688354,
2.0474999999999999,0.62527042627334595,
2.0499999999999998,0.76533061265945435,
2.0525000000000002,0.79081356525421143,
2.0550000000000002,0.78266382217407227,
2.0575000000000001,0.74085736274719238,
2.0600000000000001,0.56903958320617676,
2.0625,0.45097649097442627,
2.0649999999999999,0.32199901342391968,
2.0674999999999999,0.19085785746574402,
2.0699999999999998,-0.045484703034162521,
2.0724999999999998,-0.13796865940093994,
2.0750000000000002,-0.20823916792869568,
2.0775000000000001,-0.2553105354309082,
2.0800000000000001,-0.28634688258171082,
2.0825,-0.27745187282562256,
2.085,-0.25841176509857178,
2.0874999999999999,-0.23393850028514862,
2.0899999999999999,-0.18405437469482422,
2.0924999999999998,-0.16386032104492188,
2.0950000000000002,-0.14840225875377655,
2.0975000000000001,-0.13760805130004883,
2.1000000000000001,-0.12650132179260254,
2.1025,-0.12376070022583008,
2.105,-0.12138068675994873,
2.1074999999999999,-0.11861602962017059,
2.1099999999999999,-0.11061052978038788,
2.1124999999999998,-0.10561009496450424,
2.1150000000000002,-0.10046541690826416,
2.1175000000000002,-0.095609232783317566,
2.1200000000000001,-0.088204741477966309,
2.1225000000000001,-0.08594493567943573,
2.125,-0.084550581872463226,
2.1274999999999999,-0.083757244050502777,
2.1299999999999999,-0.082771584391593933,
2.1324999999999998,-0.081978246569633484,
2.1349999999999998,-0.080656014382839203,
2.1375000000000002,-0.078708730638027191,
2.1400000000000001,-0.07317940890789032,
2.1425000000000001,-0.069861814379692078,
2.145,-0.06639997661113739,
2.1475,-0.063034296035766602,
2.1499999999999999,-0.057192444801330566,
2.1524999999999999,-0.054860513657331467,
2.1549999999999998,-0.05293726921081543,
2.1575000000000002,-0.051350593566894531,
2.1600000000000001,-0.048634015023708344,
2.1625000000000001,-0.047167539596557617,
2.165,-0.045460663735866547,
2.1675,-0.04336913675069809,
2.1699999999999999,-0.037791728973388672,
2.1724999999999999,-0.034281812608242035,
2.1749999999999998,-0.030387243255972862,
2.1775000000000002,-0.026180148124694824,
2.1800000000000002,-0.017405351623892784,
2.1825000000000001,-0.013102094642817974,
2.1850000000000001,-0.0089911622926592827,
2.1875,-0.0051687164232134819,
2.1899999999999999,0.0016587972640991211,
2.1924999999999999,0.0047600269317626953,
2.1949999999999998,0.0077891349792480469,
2.1974999999999998,0.010962486267089844,
2.2000000000000002,0.018198689445853233,
2.2025000000000001,0.022525986656546593,
2.2050000000000001,0.027430256828665733,
2.2075,0.032935541123151779,
2.21,0.045460663735866547,
2.2124999999999999,0.052288174629211426,
2.2149999999999999,0.059283971786499023,
2.2174999999999998,0.066351890563964844,
2.2200000000000002,0.080199241638183594,
2.2225000000000001,0.086858473718166351,
2.2250000000000001,0.093277297914028168,
2.2275,0.099503800272941589,
2.23,0.11125962436199188,
2.2324999999999999,0.1168370246887207,
2.2349999999999999,0.12219806760549545,
2.2374999999999998,0.12729465961456299,
2.2400000000000002,0.13657431304454803,
2.2425000000000002,0.1406131237745285,
2.2450000000000001,0.14414708316326141,
2.2475000000000001,0.14710406959056854,
2.25,0.15097460150718689,
2.2524999999999999,0.15176793932914734,
2.2549999999999999,0.15174388885498047,
2.2574999999999998,0.15080630779266357,
2.2599999999999998,0.1460222452878952,
2.2625000000000002,0.14205555617809296,
2.2650000000000001,0.13695895671844482,
2.2675000000000001,0.13068437576293945,
2.27,0.11457721889019012,
2.2725,0.10481675714254379,
2.2749999999999999,0.094046592712402344,
2.2774999999999999,0.082386933267116547,
2.2799999999999998,0.057168405503034592,
2.2825000000000002,0.044066309928894043,
2.2850000000000001,0.030916135758161545,
2.2875000000000001,0.017934244126081467,
2.29,-0.006827513687312603,
2.2925,-0.018366973847150803,
2.2949999999999999,-0.029257338494062424,
2.2974999999999999,-0.039450526237487793,
2.2999999999999998,-0.057817500084638596,
2.3025000000000002,-0.06599128246307373,
2.3050000000000002,-0.073540017008781433,
2.3075000000000001,-0.080439649522304535,
2.3100000000000001,-0.092291638255119324,
2.3125,-0.097171865403652191,
2.3149999999999999,-0.10133087635040283,
2.3174999999999999,-0.10474463552236557,
2.3199999999999998,-0.10936041921377182,
2.3224999999999998,-0.1106826514005661,
2.3250000000000002,-0.11147598922252655,
2.3275000000000001,-0.11193275451660156,
2.3300000000000001,-0.11229336261749268,
2.3325,-0.11250972747802734,
2.335,-0.11287033557891846,
2.3374999999999999,-0.11347135156393051,
2.3399999999999999,-0.11522631347179413,
2.3424999999999998,-0.11626005172729492,
2.3450000000000002,-0.11729379743337631,
2.3475000000000001,-0.11823137849569321,
2.3500000000000001,-0.11955361068248749,
2.3525,-0.11984209716320038,
2.355,-0.11989017575979233,
2.3574999999999999,-0.11972188949584961,
2.3599999999999999,-0.11892855167388916,
2.3624999999999998,-0.11837562173604965,
2.3650000000000002,-0.11779864877462387,
2.3675000000000002,-0.11724571883678436,
2.3700000000000001,-0.11638025939464569,
2.3725000000000001,-0.11621197313070297,
2.375,-0.1162840947508812,
2.3774999999999999,-0.11666874587535858,
2.3799999999999999,-0.11830350011587143,
2.3824999999999998,-0.11948148906230927,
2.3849999999999998,-0.120755635201931,
2.3875000000000002,-0.12296736240386963,
2.3900000000000001,-0.12356837838888168,
2.3925000000000001,-0.12361645698547363,
2.395,-0.12303948402404785,
2.3975,-0.12186150252819061,
2.3999999999999999,-0.11813521385192871,
2.4024999999999999,-0.1159956082701683,
2.4049999999999998,-0.11402428150177002,
2.4075000000000002,-0.11243760585784912,
2.4100000000000001,-0.11118750274181366,
2.4125000000000001,-0.111620232462883,
2.415,-0.11262993514537811,
2.4175,-0.11549075692892075,
2.4199999999999999,-0.11681298911571503,
2.4224999999999999,-0.11765440553426743,
2.4249999999999998,-0.11787077039480209,
2.4275000000000002,-0.11597156524658203,
2.4300000000000002,-0.11392812430858612,
2.4325000000000001,-0.11140386760234833,
2.4350000000000001,-0.10856708139181137,
2.4375,-0.1030377596616745,
2.4399999999999999,-0.10077794641256332,
2.4424999999999999,-0.09904702752828598,
2.4449999999999998,-0.09796520322561264,
2.4474999999999998,-0.097652673721313477,
2.4500000000000002,-0.098325811326503754,
2.4525000000000001,-0.099407635629177094,
2.4550000000000001,-0.1007058247923851,
2.4575,-0.1021001785993576,
2.46,-0.10433594882488251,
2.4624999999999999,-0.10481675714254379,
2.4649999999999999,-0.10464847087860107,
2.4674999999999998,-0.10197997093200684,
2.4700000000000002,-0.099455714225769043,
2.4725000000000001,-0.09625832736492157,
2.4750000000000001,-0.092556081712245941,
2.4775,-0.084718868136405945,
2.48,-0.081160865724086761,
2.4824999999999999,-0.078179836273193359,
2.4849999999999999,-0.075992152094841003,
2.4874999999999998,-0.074189111590385437,
2.4900000000000002,-0.074429512023925781,
2.4925000000000002,-0.075198814272880554,
2.4950000000000001,-0.076232552528381348,
2.4975000000000001,-0.078179836273193359,
2.5,-0.078756809234619141,
2.5024999999999999,-0.078949138522148132,
2.5049999999999999,-0.078828930854797363,
2.5074999999999998,-0.077987514436244965,
2.5099999999999998,-0.077530741691589355,
2.5125000000000002,-0.077122054994106293,
2.5150000000000001,-0.076689325273036957,
2.5175000000000001,-0.075270935893058777,
2.52,-0.073804460465908051,
2.5225,-0.071496568620204926,
2.5249999999999999,-0.068203017115592957,
2.5274999999999999,-0.058610837906599045,
2.5299999999999998,-0.052672825753688812,
2.5325000000000002,-0.046446323394775391,
2.5350000000000001,-0.040412150323390961,
2.5375000000000001,-0.03106037899851799,
2.54,-0.02860824391245842,
2.5425,-0.028079351410269737,
2.5449999999999999,-0.02952178381383419,
2.5474999999999999,-0.037791728973388672,
2.5499999999999998,-0.043946109712123871,
2.5525000000000002,-0.050797663629055023,
2.5550000000000002,-0.057889621704816818,
2.5575000000000001,-0.070967674255371094,
2.5600000000000001,-0.076352760195732117,
2.5625,-0.080776214599609375,
2.5649999999999999,-0.084262095391750336,
2.5674999999999999,-0.089118286967277527,
2.5699999999999998,-0.09094536304473877,
2.5724999999999998,-0.092652246356010437,
2.5750000000000002,-0.094335079193115234,
2.5775000000000001,-0.097484394907951355,
2.5800000000000001,-0.098614297807216644,
2.5825,-0.09904702752828598,
2.585,-0.098542176187038422,
2.5874999999999999,-0.094070635735988617,
2.5899999999999999,-0.090368390083312988,
2.5924999999999998,-0.08628150075674057,
2.5950000000000002,-0.082603298127651215,
2.5975000000000001,-0.080559849739074707,
2.6000000000000001,-0.084382295608520508,
2.6025,-0.092628203332424164,
2.605,-0.10577838122844696,
2.6074999999999999,-0.1459260880947113,
2.6099999999999999,-0.17080804705619812,
2.6124999999999998,-0.19633910059928894,
2.6150000000000002,-0.21982669830322266,
2.6175000000000002,-0.24788200855255127,
2.6200000000000001,-0.24581453204154968,
2.6225000000000001,-0.22891402244567871,
2.625,-0.19494473934173584,
2.6274999999999999,-0.071544647216796875,
2.6299999999999999,0.016684135422110558,
2.6324999999999998,0.11933724582195282,
2.6349999999999998,0.23211142420768738,
2.6375000000000002,0.46448728442192078,
2.6400000000000001,0.57016950845718384,
2.6425000000000001,0.65921568870544434,
2.645,0.7249906063079834,
2.6475,0.7674221396446228,
2.6499999999999999,0.73946297168731689,
2.6524999999999999,0.67965012788772583,
2.6549999999999998,0.59187811613082886,
2.6575000000000002,0.35820406675338745,
2.6600000000000001,0.22857746481895447,
2.6625000000000001,0.10188381373882294,
2.665,-0.013967554084956646,
2.6675,-0.19001643359661102,
2.6699999999999999,-0.24393936991691589,
2.6724999999999999,-0.27480742335319519,
2.6749999999999998,-0.28495252132415771,
2.6775000000000002,-0.25939744710922241,
2.6800000000000002,-0.23340961337089539,
2.6825000000000001,-0.20482540130615234,
2.6850000000000001,-0.17739515006542206,
2.6875,-0.1353001594543457,
2.6899999999999999,-0.12227018922567368,
2.6924999999999999,-0.11412044614553452,
2.6949999999999998,-0.10960082709789276,
2.6974999999999998,-0.10592262446880341,
2.7000000000000002,-0.10423978418111801,
2.7025000000000001,-0.10159532725811005,
2.7050000000000001,-0.097700759768486023,
2.7075,-0.086738273501396179,
2.71,-0.080511771142482758,
2.7124999999999999,-0.074405476450920105,
2.7149999999999999,-0.068828068673610687,
2.7174999999999998,-0.064068041741847992,
2.7200000000000002,-0.057072244584560394,
2.7225000000000001,-0.054644148796796799,
2.7250000000000001,-0.052624743431806564,
2.7275,-0.049090784043073654,
2.73,-0.047263704240322113,
2.7324999999999999,-0.045292377471923828,
2.7349999999999999,-0.043224893510341644,
2.7374999999999998,-0.038849513977766037,
2.7400000000000002,-0.036637783050537109,
2.7425000000000002,-0.034450095146894455,
2.7450000000000001,-0.032286446541547775,
2.7475000000000001,-0.027935108169913292,
2.75,-0.025723379105329514,
2.7524999999999999,-0.023439526557922363,
2.7549999999999999,-0.021131634712219238,
2.7574999999999998,-0.016419690102338791,
2.7599999999999998,-0.014039675705134869,
2.7625000000000002,-0.011659662239253521,
2.7650000000000001,-0.0092315673828125,
2.7675000000000001,-0.0040628514252603054,
2.77,-0.0011779865017160773,
2.7725,0.002043446060270071,
2.7749999999999999,0.0056254863739013672,
2.7774999999999999,0.013943513855338097,
2.7799999999999998,0.018583338707685471,
2.7825000000000002,0.023391446098685265,
2.7850000000000001,0.028271675109863281,
2.7875000000000001,0.037719607353210449,
2.79,0.042143069207668304,
2.7925,0.046302080154418945,
2.7949999999999999,0.050316851586103439,
2.7974999999999999,0.058298312127590179,
2.7999999999999998,0.062577530741691589,
2.8025000000000002,0.067241393029689789,
2.8050000000000002,0.072362028062343597,
2.8075000000000001,0.083997651934623718,
2.8100000000000001,0.090392433106899261,
2.8125,0.097027622163295746,
2.8149999999999999,0.1036868542432785,
2.8174999999999999,0.11659662425518036,
2.8199999999999998,0.12258271872997284,
2.8224999999999998,0.12818416953086853,
2.8250000000000002,0.13340096175670624,
2.8275000000000001,0.14270465075969696,
2.8300000000000001,0.14693579077720642,
2.8325,0.15090247988700867,
2.835,0.1547008752822876,
2.8374999999999999,0.1616966724395752,
2.8399999999999999,0.16487002372741699,
2.8424999999999998,0.16768276691436768,
2.8450000000000002,0.17006278038024902,
2.8475000000000001,0.17277936637401581,
2.8500000000000001,0.17275533080101013,
2.8525,0.17160138487815857,
2.855,0.16912519931793213,
2.8574999999999999,0.15984556078910828,
2.8599999999999999,0.15304207801818848,
2.8624999999999998,0.14489233493804932,
2.8650000000000002,0.13556461036205292,
2.8675000000000002,0.11414448916912079,
2.8700000000000001,0.10255694389343262,
2.8725000000000001,0.090656876564025879,
2.875,0.078612565994262695,
2.8774999999999999,0.054572027176618576,
2.8799999999999999,0.042720042169094086,
2.8824999999999998,0.03106037899851799,
2.8849999999999998,0.019569000229239464,
2.8875000000000002,-0.002524256706237793,
2.8900000000000001,-0.012933811172842979,
2.8925000000000001,-0.022790431976318359,
2.895,-0.031901799142360687,
2.8975,-0.047552190721035004,
2.8999999999999999,-0.05397101491689682,
2.9024999999999999,-0.059428215026855469,
2.9049999999999998,-0.064068041741847992,
2.9075000000000002,-0.071448490023612976,
2.9100000000000001,-0.074525676667690277,
2.9125000000000001,-0.077434584498405457,
2.915,-0.08029540628194809,
2.9175,-0.086017057299613953,
2.9199999999999999,-0.08878171443939209,
2.9224999999999999,-0.091354057192802429,
2.9249999999999998,-0.093589827418327332,
2.9275000000000002,-0.096618935465812683,
2.9300000000000002,-0.097243987023830414,
2.9325000000000001,-0.097292065620422363,
2.9350000000000001,-0.096835300326347351,
2.9375,-0.094888016581535339,
2.9399999999999999,-0.093710027635097504,
2.9424999999999999,-0.092604160308837891,
2.9449999999999998,-0.09164254367351532,
2.9474999999999998,-0.090416476130485535,
2.9500000000000002,-0.09015202522277832,
2.9525000000000001,-0.090103946626186371,
2.9550000000000001,-0.090176068246364594,
2.9575,-0.090512633323669434,
2.96,-0.090680919587612152,
2.9624999999999999,-0.090849205851554871,
2.9649999999999999,-0.090993449091911316,
2.9674999999999998,-0.091305971145629883,
2.9700000000000002,-0.091498300433158875,
2.9725000000000001,-0.091690622270107269,
2.9750000000000001,-0.091906987130641937,
2.9775,-0.092243552207946777,
2.98,-0.092291638255119324,
2.9824999999999999,-0.092195473611354828,
2.9849999999999999,-0.091906987130641937,
2.9874999999999998,-0.090680919587612152,
2.9900000000000002,-0.089719295501708984,
2.9925000000000002,-0.088565349578857422,
2.9950000000000001,-0.087267160415649414,
2.9975000000000001,-0.084430381655693054,
3,-0.083036027848720551,88.724586486816406
3.0024999999999999,-0.081761881709098816,
3.0049999999999999,-0.080656014382839203,
3.0074999999999998,-0.078925095498561859,
3.0099999999999998,-0.078276000916957855,
3.0125000000000002,-0.077674984931945801,
3.0150000000000001,-0.07709801197052002,
3.0175000000000001,-0.07563154399394989,
3.02,-0.074717998504638672,
3.0225,-0.073660217225551605,
3.0249999999999999,-0.072554349899291992,
3.0274999999999999,-0.070486865937709808,
3.0299999999999998,-0.069669485092163086,
3.0325000000000002,-0.069116555154323578,
3.0350000000000001,-0.068804025650024414,
3.0375000000000001,-0.068707868456840515,
3.04,-0.068779990077018738,
3.0425,-0.068755947053432465,
3.0449999999999999,-0.068539582192897797,
3.0474999999999999,-0.067385636270046234,
3.0499999999999998,-0.066424012184143066,
3.0525000000000002,-0.065270066261291504,
3.0550000000000002,-0.063971877098083496,
3.0575000000000001,-0.06120721623301506,
3.0600000000000001,-0.059764783829450607,
3.0625,-0.058202147483825684,
3.0649999999999999,-0.056495271623134613,
3.0674999999999999,-0.052192013710737228,
3.0699999999999998,-0.049475431442260742,
3.0724999999999998,-0.046374201774597168,
3.0750000000000002,-0.042936407029628754,
3.0775000000000001,-0.035748284310102463,
3.0800000000000001,-0.032382607460021973,
3.0825,-0.029497742652893066,
3.085,-0.027286013588309288,
3.0874999999999999,-0.025507014244794846,
3.0899999999999999,-0.02598782442510128,
3.0924999999999998,-0.027261972427368164,
3.0950000000000002,-0.029113095253705978,
3.0975000000000001,-0.033368270844221115,
3.1000000000000001,-0.035075150430202484,
3.1025,-0.036012731492519379,
3.105,-0.035916566848754883,
3.1074999999999999,-0.032021999359130859,
3.1099999999999999,-0.028199553489685059,
3.1124999999999998,-0.023319324478507042,
3.1150000000000002,-0.017693838104605675,
3.1175000000000002,-0.0056735677644610405,
3.1200000000000001,-0.00012020270514767617,
3.1225000000000001,0.004567702766507864,
3.125,0.0080776214599609375,
3.1274999999999999,0.010842284187674522,
3.1299999999999999,0.0099768247455358505,
3.1324999999999998,0.0077410540543496609,
3.1349999999999998,0.004351337905973196,
3.1375000000000002,-0.0048561892472207546,
3.1400000000000001,-0.010048946365714073,
3.1425000000000001,-0.015241703018546104,
3.145,-0.020266175270080566,
3.1475,-0.029089054092764854,
3.1499999999999999,-0.032791297882795334,
3.1524999999999999,-0.036084853112697601,
3.1549999999999998,-0.039017796516418457,
3.1575000000000002,-0.044282674789428711,
3.1600000000000001,-0.046782892197370529,
3.1625000000000001,-0.049259066581726074,
3.165,-0.051663123071193695,
3.1675,-0.055629812180995941,
3.1699999999999999,-0.056831836700439453,
3.1724999999999999,-0.057192444801330566,
3.1749999999999998,-0.056543350219726562,
3.1775000000000002,-0.052312217652797699,
3.1800000000000002,-0.049162905663251877,
3.1825000000000001,-0.04598955437541008,
3.1850000000000001,-0.043609540909528732,
3.1875,-0.044883690774440765,
3.1899999999999999,-0.050364933907985687,
3.1924999999999999,-0.060077309608459473,
3.1949999999999998,-0.074237190186977386,
3.1974999999999998,-0.11443297564983368,
3.2000000000000002,-0.13808886706829071,
3.2025000000000001,-0.16148030757904053,
3.2050000000000001,-0.18191477656364441,
3.2075,-0.2014116495847702,
3.21,-0.19410333037376404,
3.2124999999999999,-0.17160138487815857,
3.2149999999999999,-0.13195852935314178,
3.2174999999999998,0.0015626351814717054,
3.2200000000000002,0.093373462557792664,
3.2225000000000001,0.19797384738922119,
3.2250000000000001,0.31057974696159363,
3.2275,0.5349501371383667,
3.23,0.63253068923950195,
3.2324999999999999,0.71090281009674072,
3.2349999999999999,0.76400840282440186,
3.2374999999999998,0.77819228172302246,
3.2400000000000002,0.73667430877685547,
3.2425000000000002,0.66517770290374756,
3.2450000000000001,0.56848669052124023,
3.2475000000000001,0.32779276371002197,
3.25,0.20042598247528076,
3.2524999999999999,0.079453989863395691,
3.2549999999999999,-0.027983188629150391,
3.2574999999999998,-0.18292447924613953,
3.2599999999999998,-0.22624552249908447,
3.2625000000000002,-0.24768969416618347,
3.2650000000000001,-0.25023800134658813,
3.2675000000000001,-0.21588405966758728,
3.27,-0.18847784399986267,
3.2725,-0.15994171798229218,
3.2749999999999999,-0.13347308337688446,
3.2774999999999999,-0.093974471092224121,
3.2799999999999998,-0.081809960305690765,
3.2825000000000002,-0.074020825326442719,
3.2850000000000001,-0.069429084658622742,
3.2875000000000001,-0.064957544207572937,
3.29,-0.063106417655944824,
3.2925,-0.060726404190063477,
3.2949999999999999,-0.053922932595014572,
3.2974999999999999,-0.049739878624677658,
3.2999999999999998,-0.045388542115688324,
3.3025000000000002,-0.041085284203290939,
3.3050000000000002,-0.036974351853132248,
3.3075000000000001,-0.029666027054190636,
3.3100000000000001,-0.026420554146170616,
3.3125,-0.023439526557922363,
3.3149999999999999,-0.018102526664733887,
3.3174999999999999,-0.015794634819030762,
3.3199999999999998,-0.013727148994803429,
3.3224999999999998,-0.011900067329406738,
3.3250000000000002,-0.0087507572025060654,
3.3275000000000001,-0.0071881217882037163,
3.3300000000000001,-0.0054331622086465359,
3.3325,-0.0034137568436563015,
3.335,0.0018030405044555664,
3.3374999999999999,0.0049523515626788139,
3.3399999999999999,0.0083661079406738281,
3.3424999999999998,0.01185198687016964,
3.3450000000000002,0.018463134765625,
3.3475000000000001,0.021323960274457932,
3.3500000000000001,0.023800134658813477,
3.3525,0.025939743965864182,
3.355,0.029569864273071289,
3.3574999999999999,0.031300783157348633,
3.3599999999999999,0.03322402760386467,
3.3624999999999998,0.035411715507507324,
3.3650000000000002,0.040965080261230469,
3.3675000000000002,0.044402878731489182,
3.3700000000000001,0.04827340692281723,
3.3725000000000001,0.052528582513332367,
3.375,0.06212075799703598,
3.3774999999999999,0.067409679293632507,
3.3799999999999999,0.072987079620361328,
3.3824999999999998,0.078780852258205414,
3.3849999999999998,0.09094536304473877,
3.3875000000000002,0.097123786807060242,
3.3900000000000001,0.10332624614238739,
3.3925000000000001,0.10940849781036377,
3.395,0.12114028632640839,
3.3975,0.12676577270030975,
3.3999999999999999,0.13227105140686035,
3.4024999999999999,0.13770422339439392,
3.4049999999999998,0.1484503448009491,
3.4075000000000002,0.15381138026714325,
3.4100000000000001,0.15910029411315918,
3.4125000000000001,0.16426901519298553,
3.415,0.16922137141227722,
3.4175,0.17818848788738251,
3.4199999999999999,0.18205901980400085,
3.4224999999999999,0.185472771525383,
3.4249999999999998,0.19112229347229004,
3.4275000000000002,0.19343018531799316,
3.4300000000000002,0.19542555510997772,
3.4325000000000001,0.19708435237407684,
3.4350000000000001,0.19910375773906708,
3.4375,0.1991758793592453,
3.4399999999999999,0.19838254153728485,
3.4424999999999999,0.19655546545982361,
3.4449999999999998,0.18927118182182312,
3.4474999999999998,0.18369376659393311,
3.4500000000000002,0.17686626315116882,
3.4525000000000001,0.16888479888439178,
3.4550000000000001,0.15018126368522644,
3.4575,0.13977169990539551,
3.46,0.12883326411247253,
3.4624999999999999,0.11746208369731903,
3.4649999999999999,0.093613862991333008,
3.4674999999999998,0.081160865724086761,
3.4700000000000002,0.068419381976127625,
3.4725000000000001,0.055485568940639496,
3.4750000000000001,0.029714107513427734,
3.4775,0.017405351623892784,
3.48,0.0059139728546142578,
3.4824999999999999,-0.0044715404510498047,
3.4849999999999999,-0.020867189392447472,
3.4874999999999998,-0.026660960167646408,
3.4900000000000002,-0.030916135758161545,
3.4925000000000002,-0.033873122185468674,
3.4950000000000001,-0.037142634391784668,
3.4975000000000001,-0.038224458694458008,
3.5,-0.039426486939191818,
3.5024999999999999,-0.040989123284816742,
3.5049999999999999,-0.045532785356044769,
3.5074999999999998,-0.048393607139587402,
3.5099999999999998,-0.051374636590480804,
3.5125000000000002,-0.054211419075727463,
3.5150000000000001,-0.058466594666242599,
3.5175000000000001,-0.059500336647033691,
3.52,-0.059788823127746582,
3.5225,-0.059404175728559494,
3.5249999999999999,-0.057432852685451508,
3.5274999999999999,-0.056351028382778168,
3.5299999999999998,-0.055557690560817719,
3.5325000000000002,-0.05522112175822258,
3.5350000000000001,-0.055966377258300781,
3.5375000000000001,-0.056879919022321701,
3.54,-0.057961743324995041,
3.5425,-0.058947406709194183,
3.5449999999999999,-0.059957109391689301,
3.5474999999999999,-0.059764783829450607,
3.5499999999999998,-0.059139728546142578,
3.5525000000000002,-0.058154068887233734,
3.5550000000000002,-0.055822134017944336,
3.5575000000000001,-0.054836474359035492,
3.5600000000000001,-0.054163336753845215,
3.5625,-0.053850810974836349,
3.5649999999999999,-0.054379701614379883,
3.5674999999999999,-0.05505283921957016,
3.5699999999999998,-0.055846177041530609,
3.5724999999999998,-0.056639514863491058,
3.5750000000000002,-0.057937704026699066,
3.5775000000000001,-0.058322351425886154,
3.5800000000000001,-0.058490633964538574,
3.5825,-0.058490633964538574,
3.585,-0.058033864945173264,
3.5874999999999999,-0.057601135224103928,
3.5899999999999999,-0.057096283882856369,
3.5924999999999998,-0.056519310921430588,
3.5950000000000002,-0.055173039436340332,
3.5975000000000001,-0.054427783936262131,
3.6000000000000001,-0.053658485412597656,
3.6025,-0.05288919061422348,
3.605,-0.051350593566894531,
3.6074999999999999,-0.050581298768520355,
3.6099999999999999,-0.049787960946559906,
3.6124999999999998,-0.048898458480834961,
3.6150000000000002,-0.046758852899074554,
3.6175000000000002,-0.045412581413984299,
3.6200000000000001,-0.0438259057700634,
3.6225000000000001,-0.042022865265607834,
3.625,-0.037887893617153168,
3.6274999999999999,-0.035700201988220215,
3.6299999999999999,-0.033560596406459808,
3.6324999999999998,-0.031565230339765549,
3.6349999999999998,-0.028415918350219727,
3.6375000000000002,-0.027406215667724609,
3.6400000000000001,-0.026781162247061729,
3.6425000000000001,-0.026516716927289963,
3.645,-0.026877325028181076,
3.6475,-0.027286013588309288,
3.6499999999999999,-0.027670662850141525,
3.6524999999999999,-0.027959149330854416,
3.6549999999999998,-0.027790864929556847,
3.6575000000000002,-0.027213891968131065,
3.6600000000000001,-0.026228230446577072,
3.6625000000000001,-0.024857919663190842,
3.665,-0.021107595413923264,
3.6675,-0.018871825188398361,
3.6699999999999999,-0.016539892181754112,
3.6724999999999999,-0.014256040565669537,
3.6749999999999998,-0.010409554466605186,
3.6775000000000002,-0.009135405533015728,
3.6800000000000002,-0.0084622707217931747,
3.6825000000000001,-0.0084141893312335014,
3.6850000000000001,-0.0099768247455358505,
3.6875,-0.011250972747802734,
3.6899999999999999,-0.012525121681392193,
3.6924999999999999,-0.013438662514090538,
3.6949999999999998,-0.012837648391723633,
3.6974999999999998,-0.0107701625674963,
3.7000000000000002,-0.0073083243332803249,
3.7025000000000001,-0.0025002162437886,
3.7050000000000001,0.010265311226248741,
3.7075,0.017357271164655685,
3.71,0.024256905540823936,
3.7124999999999999,0.030339162796735764,
3.7149999999999999,0.03812829777598381,
3.7174999999999998,0.03921012207865715,
3.7200000000000002,0.03829658031463623,
3.7225000000000001,0.035483837127685547,
3.7250000000000001,0.025603175163269043,
3.7275,0.019472837448120117,
3.73,0.01322229765355587,
3.7324999999999999,0.0072842836380004883,
3.7349999999999999,-0.0023559730034321547,
3.7374999999999998,-0.0058418512344360352,
3.7400000000000002,-0.0085103511810302734,
3.7425000000000002,-0.010553797706961632,
3.7450000000000001,-0.013919472694396973,
3.7475000000000001,-0.015794634819030762,
3.75,-0.018078487366437912,
3.7524999999999999,-0.020819108933210373,
3.7549999999999999,-0.027310054749250412,
3.7574999999999998,-0.030579566955566406,
3.7599999999999998,-0.033368270844221115,
3.7625000000000002,-0.035315554589033127,
3.7650000000000001,-0.035411715507507324,
3.7675000000000001,-0.033368270844221115,
3.77,-0.030122797936201096,
3.7725,-0.026132067665457726,
3.7749999999999999,-0.018895864486694336,
3.7774999999999999,-0.017501514405012131,
3.7799999999999998,-0.018895864486694336,
3.7825000000000002,-0.023968419060111046,
3.7850000000000001,-0.046975217759609222,
3.7875000000000001,-0.064837336540222168,
3.79,-0.085993014276027679,
3.7925,-0.10897576808929443,
3.7949999999999999,-0.15212854743003845,
3.7974999999999999,-0.16696155071258545,
3.7999999999999998,-0.17340442538261414,
3.8025000000000002,-0.168500155210495,
3.8050000000000002,-0.11452913284301758,
3.8075000000000001,-0.062144797295331955,
3.8100000000000001,0.0077410540543496609,
3.8125,0.094046592712402344,
3.8149999999999999,0.30418497323989868,
3.8174999999999999,0.41871410608291626,
3.8199999999999998,0.53144019842147827,
3.8224999999999998,0.6352953314781189,
3.8250000000000002,0.78862589597702026,
3.8275000000000001,0.82617723941802979,
3.8300000000000001,0.83223545551300049,
3.8325,0.80552637577056885,
3.835,0.66099464893341064,
3.8374999999999999,0.55271607637405396,
3.8399999999999999,0.42998909950256348,
3.8424999999999998,0.30127605795860291,
3.8450000000000002,0.059596501290798187,
3.8475000000000001,-0.03921012207865715,
3.8500000000000001,-0.11688511073589325,
3.8525,-0.17143309116363525,
3.855,-0.21420121192932129,
3.8574999999999999,-0.20845553278923035,
3.8599999999999999,-0.19052128493785858,
3.8624999999999998,-0.16523063182830811,
3.8650000000000002,-0.10981719195842743,
3.8675000000000002,-0.08594493567943573,
3.8700000000000001,-0.066904827952384949,
3.8725000000000001,-0.0530574731528759,
3.875,-0.038536988198757172,
3.8774999999999999,-0.035580001771450043,
3.8799999999999999,-0.033897161483764648,
3.8824999999999998,-0.032502811402082443,
3.8849999999999998,-0.028367837890982628,
3.8875000000000002,-0.0253627710044384,
3.8900000000000001,-0.021924972534179688,
3.8925000000000001,-0.018391013145446777,
3.895,-0.012092391960322857,
3.8975,-0.0095681352540850639,
3.8999999999999999,-0.0074766082689166069,
3.9024999999999999,-0.0056735677644610405,
3.9049999999999998,-0.002091526985168457,
3.9075000000000002,2.4040540665737353e-05,
3.9100000000000001,0.0025002162437886,
3.9125000000000001,0.0053610405884683132,
3.915,0.011755824089050293,
3.9175,0.015001296997070312,
3.9199999999999999,0.018054446205496788,
3.9224999999999999,0.020722946152091026,
3.9249999999999998,0.024713676422834396,
3.9275000000000002,0.026011865586042404,
3.9300000000000002,0.026997527107596397,
3.9325000000000001,0.027790864929556847,
3.9350000000000001,0.029641985893249512,
3.9375,0.031012296676635742,
3.9399999999999999,0.032887458801269531,
3.9424999999999999,0.035315554589033127,
3.9449999999999998,0.041710339486598969,
3.9474999999999998,0.045508742332458496,
3.9500000000000002,0.04952351376414299,
3.9525000000000001,0.053634446114301682,
3.9550000000000001,0.061736106872558594,
3.9575,0.065582595765590668,
3.96,0.069284841418266296,
3.9624999999999999,0.072890922427177429,
3.9649999999999999,0.079982876777648926,
3.9674999999999998,0.083588957786560059,
3.9700000000000002,0.087291203439235687,
3.9725000000000001,0.091113649308681488,
3.9750000000000001,0.099167227745056152,
3.9775,0.10344644635915756,
3.98,0.10786990821361542,
3.9824999999999999,0.11253377050161362,
3.9849999999999999,0.12272696197032928,
3.9874999999999998,0.12842456996440887,
3.9900000000000002,0.13460299372673035,
3.9925000000000002,0.14131030440330505,
3.9950000000000001,0.15631160140037537,
3.9975000000000001,0.1644853800535202,
4,0.17292360961437225,89.053802490234375
4.0025000000000004,0.1814579963684082,
4.0049999999999999,0.19775748252868652,
4.0075000000000003,0.20499369502067566,
4.0099999999999998,0.21131634712219238,
4.0125000000000002,0.21650910377502441,
4.0149999999999997,0.22321641445159912,
4.0175000000000001,0.22470693290233612,
4.0199999999999996,0.22516369819641113,
4.0225,0.2247309684753418,
4.0250000000000004,0.2221105545759201,
4.0274999999999999,0.22035560011863708,
4.0300000000000002,0.2184804379940033,
4.0324999999999998,0.21648506820201874,
4.0350000000000001,0.21189332008361816,
4.0374999999999996,0.20888826251029968,
4.04,0.20508985221385956,
4.0425000000000004,0.20025770366191864,
4.0449999999999999,0.18660268187522888,
4.0475000000000003,0.17758747935295105,
4.0499999999999998,0.16715388000011444,
4.0525000000000002,0.15544614195823669,
4.0549999999999997,0.12941023707389832,
4.0575000000000001,0.11575520038604736,
4.0599999999999996,0.1021963357925415,
4.0625,0.089046165347099304,
4.0650000000000004,0.064981579780578613,
4.0674999999999999,0.054331623017787933,
4.0700000000000003,0.044595204293727875,
4.0724999999999998,0.035700201988220215,
4.0750000000000002,0.019905567169189453,
4.0774999999999997,0.012717446312308311,
4.0800000000000001,0.0058658919297158718,
4.0824999999999996,-0.00069717568112537265,
4.085,-0.012789567932486534,
4.0875000000000004,-0.018126567825675011,
4.0899999999999999,-0.022838514298200607,
4.0925000000000002,-0.026829242706298828,
4.0949999999999998,-0.032454729080200195,
4.0975000000000001,-0.03413756936788559,
4.0999999999999996,-0.035219393670558929,
4.1025,-0.035892527550458908,
4.1050000000000004,-0.036733947694301605,
4.1074999999999999,-0.037286877632141113,
4.1100000000000003,-0.038104258477687836,
4.1124999999999998,-0.039258204400539398,
4.1150000000000002,-0.042503677308559418,
4.1174999999999997,-0.044402878731489182,
4.1200000000000001,-0.046326123178005219,
4.1224999999999996,-0.048081081360578537,
4.125,-0.050629377365112305,
4.1275000000000004,-0.051278471946716309,
4.1299999999999999,-0.051446758210659027,
4.1325000000000003,-0.051182311028242111,
4.1349999999999998,-0.049643717706203461,
4.1375000000000002,-0.048537850379943848,
4.1399999999999997,-0.047263704240322113,
4.1425000000000001,-0.045941472053527832,
4.1449999999999996,-0.043176811188459396,
4.1475,-0.041782461106777191,
4.1500000000000004,-0.040436189621686935,
4.1524999999999999,-0.039113961160182953,
4.1550000000000002,-0.036733947694301605,
4.1574999999999998,-0.035700201988220215,
4.1600000000000001,-0.034834742546081543,
4.1624999999999996,-0.034089487046003342,
4.165,-0.033079784363508224,
4.1675000000000004,-0.032743215560913086,
4.1699999999999999,-0.032526850700378418,
4.1725000000000003,-0.032358568161725998,
4.1749999999999998,-0.032166242599487305,
4.1775000000000002,-0.03214220330119133,
4.1799999999999997,-0.032166242599487305,
4.1825000000000001,-0.03231048583984375,
4.1849999999999996,-0.032863419502973557,
4.1875,-0.033272109925746918,
4.1900000000000004,-0.033776961266994476,
4.1924999999999999,-0.034257769584655762,
4.1950000000000003,-0.035051107406616211,
4.1974999999999998,-0.035219393670558929,
4.2000000000000002,-0.035147272050380707,
4.2024999999999997,-0.034834742546081543,
4.2050000000000001,-0.033440392464399338,
4.2074999999999996,-0.032454729080200195,
4.21,-0.031372904777526855,
4.2125000000000004,-0.0292332973331213,
4.2149999999999999,-0.028319757431745529,
4.2175000000000002,-0.027574500069022179,
4.2199999999999998,-0.027021568268537521,
4.2225000000000001,-0.02661287784576416,
4.2249999999999996,-0.026132067665457726,
4.2275,-0.025915702804923058,
4.2300000000000004,-0.025627216324210167,
4.2324999999999999,-0.024569433182477951,
4.2350000000000003,-0.023752054199576378,
4.2374999999999998,-0.022718310356140137,
4.2400000000000002,-0.021492242813110352,
4.2424999999999997,-0.020145973190665245,
4.2450000000000001,-0.01738131046295166,
4.2474999999999996,-0.0161312036216259,
4.25,-0.015025338158011436,
4.2525000000000004,-0.013438662514090538,
4.2549999999999999,-0.012885729782283306,
4.2575000000000003,-0.012380878441035748,
4.2599999999999998,-0.011803905479609966,
4.2625000000000002,-0.0099047031253576279,
4.2649999999999997,-0.0083901491016149521,
4.2675000000000001,-0.0064188241958618164,
4.2699999999999996,-0.0040388107299804688,
4.2725,0.0012981891632080078,
4.2750000000000004,0.0038224458694458008,
4.2774999999999999,0.0059860944747924805,
4.2800000000000002,0.0075246891938149929,
4.2824999999999998,0.0083180274814367294,
4.2850000000000001,0.0075968108139932156,
4.2874999999999996,0.0063947839662432671,
4.29,0.0049283108673989773,
4.2925000000000004,0.0027646622620522976,
4.2949999999999999,0.0027646622620522976,
4.2975000000000003,0.0038945674896240234,
4.2999999999999998,0.0062986216507852077,
4.3025000000000002,0.014977256767451763,
4.3049999999999997,0.02091526985168457,
4.3075000000000001,0.027454297989606857,
4.3099999999999996,0.034209690988063812,
4.3125,0.046470366418361664,
4.3150000000000004,0.051086150109767914,
4.3174999999999999,0.054235458374023438,
4.3200000000000003,0.055701933801174164,
4.3224999999999998,0.05322575569152832,
4.3250000000000002,0.04952351376414299,
4.3274999999999997,0.044450961053371429,
4.3300000000000001,0.038392744958400726,
4.3324999999999996,0.024785798043012619,
4.335,0.018030405044555664,
4.3375000000000004,0.01168370246887207,
4.3399999999999999,0.0059860944747924805,
4.3425000000000002,-0.0031252703629434109,
4.3449999999999998,-0.0065871081314980984,
4.3475000000000001,-0.0095440950244665146,
4.3499999999999996,-0.012068351730704308,
4.3525,-0.016395648941397667,
4.3550000000000004,-0.018270811066031456,
4.3574999999999999,-0.019809406250715256,
4.3600000000000003,-0.020843148231506348,
4.3624999999999998,-0.020434459671378136,
4.3650000000000002,-0.018631419166922569,
4.3674999999999997,-0.015770595520734787,
4.3700000000000001,-0.012068351730704308,
4.3724999999999996,-0.00430325698107481,
4.375,-0.0018511216621845961,
4.3775000000000004,-0.0017309188842773438,
4.3799999999999999,-0.0049283108673989773,
4.3825000000000003,-0.024569433182477951,
4.3849999999999998,-0.041662257164716721,
4.3875000000000002,-0.06320258229970932,
4.3899999999999997,-0.088084541261196136,
4.3925000000000001,-0.14025251567363739,
4.3949999999999996,-0.16222557425498962,
4.3975,-0.17725090682506561,
4.4000000000000004,-0.18196284770965576,
4.4024999999999999,-0.14789740741252899,
4.4050000000000002,-0.10435998439788818,
4.4074999999999998,-0.04154205322265625,
4.4100000000000001,0.040195785462856293,
4.4124999999999996,0.25131982564926147,
4.415,0.37229180335998535,
4.4175000000000004,0.49559575319290161,
4.4199999999999999,0.61409157514572144,
4.4225000000000003,0.80646395683288574,
4.4249999999999998,0.86656534671783447,
4.4275000000000002,0.89558225870132446,
4.4299999999999997,0.89075011014938354,
4.4325000000000001,0.78112524747848511,
4.4349999999999996,0.68354469537734985,
4.4375,0.56596243381500244,
4.4400000000000004,0.43664833903312683,
4.4424999999999999,0.17804424464702606,
4.4450000000000003,0.064765214920043945,
4.4474999999999998,-0.029641985893249512,
4.4500000000000002,-0.10176360607147217,
4.4524999999999997,-0.17684221267700195,
4.4550000000000001,-0.18386206030845642,
4.4574999999999996,-0.17573635280132294,
4.46,-0.15727321803569794,
4.4625000000000004,-0.10772566497325897,
4.4649999999999999,-0.084045730531215668,
4.4675000000000002,-0.06428440660238266,
4.4699999999999998,-0.049331188201904297,
4.4725000000000001,-0.032959580421447754,
4.4749999999999996,-0.029617946594953537,
4.4775,-0.027814906090497971,
4.4800000000000004,-0.026420554146170616,
4.4824999999999999,-0.022069215774536133,
4.4850000000000003,-0.018583338707685471,
4.4874999999999998,-0.014376243576407433,
4.4900000000000002,-0.0098085403442382812,
4.4924999999999997,-0.0012741487007588148,
4.4950000000000001,0.002067486522719264,
4.4974999999999996,0.0046638650819659233,
4.5,0.0065390272065997124,
4.5025000000000004,0.0088950004428625107,
4.5049999999999999,0.0099047031253576279,
4.5075000000000003,0.011106729507446289,
4.5099999999999998,0.012693405151367188,
4.5125000000000002,0.017333230003714561,
4.5149999999999997,0.020362338051199913,
4.5175000000000001,0.023728013038635254,
4.5199999999999996,0.027334094047546387,
4.5225,0.034546256065368652,
4.5250000000000004,0.037887893617153168,
4.5274999999999999,0.040892958641052246,
4.5300000000000002,0.043561458587646484,
4.5324999999999998,0.047768555581569672,
4.5350000000000001,0.049475431442260742,
4.5374999999999996,0.051038067787885666,
4.54,0.05260070413351059,
4.5425000000000004,0.056254863739013672,
4.5449999999999999,0.058538716286420822,
4.5475000000000003,0.061135094612836838,
4.5499999999999998,0.064092084765434265,
4.5525000000000002,0.070631109178066254,
4.5549999999999997,0.073996782302856445,
4.5575000000000001,0.077314376831054688,
4.5599999999999996,0.080487728118896484,
4.5625,0.086425743997097015,
4.5650000000000004,0.089334651827812195,
4.5674999999999999,0.092435881495475769,
4.5700000000000003,0.095897719264030457,
4.5724999999999998,0.10457634925842285,
4.5750000000000002,0.1100335568189621,
4.5774999999999997,0.1162840947508812,
4.5800000000000001,0.12325584888458252,
4.5824999999999996,0.13866584002971649,
4.585,0.14664730429649353,
4.5875000000000004,0.1545085608959198,
4.5899999999999999,0.16200920939445496,
4.5925000000000002,0.1753997802734375,
4.5949999999999998,0.18124163150787354,
4.5975000000000001,0.18653056025505066,
4.5999999999999996,0.19145886600017548,
4.6025,0.20081064105033875,
4.6050000000000004,0.20554661750793457,
4.6074999999999999,0.21052300930023193,
4.6100000000000003,0.21573981642723083,
4.6124999999999998,0.22691866755485535,
4.6150000000000002,0.23264031112194061,
4.6174999999999997,0.23821771144866943,
4.6200000000000001,0.24345855414867401,
4.6224999999999996,0.25201699137687683,
4.625,0.25490185618400574,
4.6275000000000004,0.25653660297393799,
4.6299999999999999,0.25682508945465088,
4.6325000000000003,0.25278627872467041,
4.6349999999999998,0.24838685989379883,
4.6375000000000002,0.24244885146617889,
4.6399999999999997,0.23509244620800018,
4.6425000000000001,0.21667739748954773,
4.6449999999999996,0.20609955489635468,
4.6475,0.19492070376873016,
4.6500000000000004,0.18340528011322021,
4.6524999999999999,0.16008596122264862,
4.6550000000000002,0.14859458804130554,
4.6574999999999998,0.13729552924633026,
4.6600000000000001,0.12618879973888397,
4.6624999999999996,0.10438402742147446,
4.665,0.093565784394741058,
4.6675000000000004,0.082723498344421387,
4.6699999999999999,0.071857176721096039,
4.6725000000000003,0.050364933907985687,
4.6749999999999998,0.040003459900617599,
4.6775000000000002,0.030170878395438194,
4.6799999999999997,0.021035473793745041,
4.6825000000000001,0.0056735677644610405,
4.6849999999999996,-0.00028848648071289062,
4.6875,-0.0050725541077554226,
4.6900000000000004,-0.0087026758119463921,
4.6924999999999999,-0.013054013252258301,
4.6950000000000003,-0.014135837554931641,
4.6974999999999998,-0.014760891906917095,
4.7000000000000002,-0.015097459778189659,
4.7024999999999997,-0.015506148338317871,
4.7050000000000001,-0.015770595520734787,
4.7074999999999996,-0.016179284080862999,
4.71,-0.016780298203229904,
4.7125000000000004,-0.018511217087507248,
4.7149999999999999,-0.019689202308654785,
4.7175000000000002,-0.021011432632803917,
4.7199999999999998,-0.022477906197309494,
4.7225000000000001,-0.025434892624616623,
4.7249999999999996,-0.026733081787824631,
4.7275,-0.027766823768615723,
4.7300000000000004,-0.028415918350219727,
4.7324999999999999,-0.028391879051923752,
4.7350000000000003,-0.0276947021484375,
4.7374999999999998,-0.026636919006705284,
4.7400000000000002,-0.0253627710044384,
4.7424999999999997,-0.022718310356140137,
4.7450000000000001,-0.021684568375349045,
4.7474999999999996,-0.021011432632803917,
4.75,-0.020771026611328125,
4.7525000000000004,-0.021131634712219238,
4.7549999999999999,-0.021684568375349045,
4.7575000000000003,-0.022261541336774826,
4.7599999999999998,-0.022838514298200607,
4.7625000000000002,-0.022646188735961914,
4.7649999999999997,-0.022069215774536133,
4.7675000000000001,-0.021131634712219238,
4.7699999999999996,-0.019953649491071701,
4.7725,-0.01738131046295166,
4.7750000000000004,-0.01629948616027832,
4.7774999999999999,-0.015530189499258995,
4.7800000000000002,-0.015241703018546104,
4.7824999999999998,-0.015698473900556564,
4.7850000000000001,-0.016419690102338791,
4.7874999999999996,-0.017261108383536339,
4.79,-0.018679499626159668,
4.7925000000000004,-0.018895864486694336,
4.7949999999999999,-0.018655460327863693,
4.7975000000000003,-0.017862122505903244,
4.7999999999999998,-0.014808973297476768,
4.8025000000000002,-0.012741486541926861,
4.8049999999999997,-0.010553797706961632,
4.8075000000000001,-0.0084141893312335014,
4.8099999999999996,-0.0050244731828570366,
4.8125,-0.0040388107299804688,
4.8150000000000004,-0.0035820405464619398,
4.8174999999999999,-0.0036782026290893555,
4.8200000000000003,-0.0051687164232134819,
4.8224999999999998,-0.0062745809555053711,
4.8250000000000002,-0.0074044866487383842,
4.8274999999999997,-0.0083901491016149521,
4.8300000000000001,-0.009351770393550396,
4.8324999999999996,-0.0091834869235754013,
4.835,-0.0085343923419713974,
4.8375000000000004,-0.0073804459534585476,
4.8399999999999999,-0.0039426488801836967,
4.8425000000000002,-0.0018030405044555664,
4.8449999999999998,0.00040868920041248202,
4.8475000000000001,0.0025963783264160156,
4.8499999999999996,0.0063467025756835938,
4.8525,0.0076448917388916016,
4.8550000000000004,0.0084622707217931747,
4.8574999999999999,0.0087988376617431641,
4.8600000000000003,0.0081016626209020615,
4.8624999999999998,0.0073083243332803249,
4.8650000000000002,0.0064669055864214897,
4.8674999999999997,0.0057216486893594265,
4.8700000000000001,0.0053610405884683132,
4.8724999999999996,0.0060101351700723171,
4.875,0.0072602434083819389,
4.8775000000000004,0.0091113653033971786,
4.8799999999999999,0.014063715934753418,
4.8825000000000003,0.016828378662467003,
4.8849999999999998,0.019520919770002365,
4.8875000000000002,0.021973054856061935,
4.8899999999999997,0.025723379105329514,
4.8925000000000001,0.026925405487418175,
4.8949999999999996,0.0276947021484375,
4.8975,0.028103392571210861,
4.9000000000000004,0.028223594650626183,
4.9024999999999999,0.028079351410269737,
4.9050000000000002,0.027911067008972168,
4.9074999999999998,0.027742784470319748,
4.9100000000000001,0.027670662850141525,
4.9124999999999996,0.028007229790091515,
4.915,0.028656324371695518,
4.9175000000000004,0.029786229133605957,
4.9199999999999999,0.034209690988063812,
4.9225000000000003,0.037695568054914474,
4.9249999999999998,0.042070947587490082,
4.9275000000000002,0.04723966121673584,
4.9299999999999997,0.058899324387311935,
4.9325000000000001,0.064669057726860046,
4.9349999999999996,0.069765649735927582,
4.9375,0.073828503489494324,
4.9400000000000004,0.077410541474819183,
4.9424999999999999,0.076641246676445007,
4.9450000000000003,0.074213147163391113,
4.9474999999999998,0.07031857967376709,
4.9500000000000002,0.059404175728559494,
4.9524999999999997,0.053129594773054123,
4.9550000000000001,0.046734809875488281,
4.9574999999999996,0.040532350540161133,
4.96,0.029209256172180176,
4.9625000000000004,0.024256905540823936,
4.9649999999999999,0.019713243469595909,
4.9675000000000002,0.015602311119437218,
4.9699999999999998,0.0085584325715899467,
4.9725000000000001,0.0056495270691812038,
4.9749999999999996,0.0032695136032998562,
4.9775,0.0015866756439208984,
4.9800000000000004,0.00081737840082496405,
4.9824999999999999,0.002091526985168457,
4.9850000000000003,0.0045436620712280273,
4.9874999999999998,0.0081497430801391602,
4.9900000000000002,0.017814040184020996,
4.9924999999999997,0.022838514298200607,
4.9950000000000001,0.027021568268537521,
4.9974999999999996,0.029377540573477745,
5,0.024593472480773926,89.219329833984375
5.0025000000000004,0.015698473900556564,
5.0049999999999999,0.0017068784218281507,
5.0075000000000003,-0.017357271164655685,
5.0099999999999998,-0.067674122750759125,
5.0125000000000002,-0.095729433000087738,
5.0149999999999997,-0.12253463268280029,
5.0175000000000001,-0.14496445655822754,
5.0199999999999996,-0.1630910336971283,
5.0225,-0.15200833976268768,
5.0250000000000004,-0.12368857860565186,
5.0274999999999999,-0.076184473931789398,
5.0300000000000002,0.077771149575710297,
5.0324999999999998,0.1813618391752243,
5.0350000000000001,0.29807865619659424,
5.0374999999999996,0.42253655195236206,
5.04,0.66726922988891602,
5.0425000000000004,0.77225428819656372,
5.0449999999999999,0.85565090179443359,
5.0475000000000003,0.91106438636779785,
5.0499999999999998,0.92193067073822021,
5.0525000000000002,0.87529206275939941,
5.0549999999999997,0.79699200391769409,
5.0575000000000001,0.69248777627944946,
5.0599999999999996,0.43578287959098816,
5.0625,0.301372230052948,
5.0650000000000004,0.17458240687847137,
5.0674999999999999,0.062673687934875488,
5.0700000000000003,-0.097364187240600586,
5.0724999999999998,-0.14183919131755829,
5.0750000000000002,-0.16400456428527832,
5.0774999999999997,-0.16717791557312012,
5.0800000000000001,-0.13493955135345459,
5.0824999999999996,-0.10921617597341537,
5.085,-0.082795619964599609,
5.0875000000000004,-0.058706998825073242,
5.0899999999999999,-0.024064581841230392,
5.0925000000000002,-0.014063715934753418,
5.0949999999999998,-0.0080295410007238388,
5.0975000000000001,-0.004735986702144146,
5.0999999999999996,-0.0015626351814717054,
5.1025,0.00021636486053466797,
5.1050000000000004,0.0028608243446797132,
5.1074999999999999,0.0064428648911416531,
5.1100000000000003,0.015554229728877544,
5.1124999999999998,0.020386379212141037,
5.1150000000000002,0.024954080581665039,
5.1174999999999997,0.028944810852408409,
5.1200000000000001,0.034882824867963791,
5.1224999999999996,0.036902230232954025,
5.125,0.038392744958400726,
5.1275000000000004,0.039594769477844238,
5.1299999999999999,0.041734378784894943,
5.1325000000000003,0.042936407029628754,
5.1349999999999998,0.044354796409606934,
5.1375000000000002,0.046037636697292328,
5.1399999999999997,0.050172608345746994,
5.1425000000000001,0.05260070413351059,
5.1449999999999996,0.055197082459926605,
5.1475,0.057961743324995041,
5.1500000000000004,0.063755512237548828,
5.1524999999999999,0.066712498664855957,
5.1550000000000002,0.069717571139335632,
5.1574999999999998,0.072698593139648438,
5.1600000000000001,0.078732773661613464,
5.1624999999999996,0.081761881709098816,
5.165,0.084790989756584167,
5.1675000000000004,0.087796054780483246,
5.1699999999999999,0.093758106231689453,
5.1725000000000003,0.096715092658996582,
5.1749999999999998,0.099672079086303711,
5.1775000000000002,0.10267715156078339,
5.1799999999999997,0.10899981111288071,
5.1825000000000001,0.11246164888143539,
5.1849999999999996,0.11621197313070297,
5.1875,0.12032290548086166,
5.1900000000000004,0.12965063750743866,
5.1924999999999999,0.13479530811309814,
5.1950000000000003,0.14020442962646484,
5.1974999999999998,0.14578184485435486,
5.2000000000000002,0.15708088874816895,
5.2024999999999997,0.16268233954906464,
5.2050000000000001,0.16818761825561523,
5.2074999999999996,0.17364482581615448,
5.21,0.18458327651023865,
5.2125000000000004,0.19018471240997314,
5.2149999999999999,0.19602656364440918,
5.2175000000000002,0.20210883021354675,
5.2199999999999998,0.21509072184562683,
5.2225000000000001,0.22189418971538544,
5.2249999999999996,0.22874574363231659,
5.2275,0.23552517592906952,
5.2300000000000004,0.24817049503326416,
5.2324999999999999,0.25369983911514282,
5.2350000000000003,0.25855600833892822,
5.2374999999999998,0.26264292001724243,
5.2400000000000002,0.26850879192352295,
5.2424999999999997,0.27031183242797852,
5.2450000000000001,0.27141770720481873,
5.2474999999999996,0.27187448740005493,
5.25,0.27072054147720337,
5.2525000000000004,0.26898962259292603,
5.2549999999999999,0.26639324426651001,
5.2575000000000003,0.26278716325759888,
5.2599999999999998,0.25216123461723328,
5.2625000000000002,0.24506926536560059,
5.2649999999999997,0.23677527904510498,
5.2675000000000001,0.22737543284893036,
5.2699999999999996,0.20576298236846924,
5.2725,0.19391100108623505,
5.2750000000000004,0.18160223960876465,
5.2774999999999999,0.16902904212474823,
5.2800000000000002,0.14376243948936462,
5.2824999999999998,0.13140559196472168,
5.2850000000000001,0.11938532441854477,
5.2874999999999996,0.10784586519002914,
5.29,0.086569987237453461,
5.2925000000000004,0.076977811753749847,
5.2949999999999999,0.06815493106842041,
5.2975000000000003,0.060125391930341721,
5.2999999999999998,0.046302080154418945,
5.3025000000000002,0.040436189621686935,
5.3049999999999997,0.035171311348676682,
5.3075000000000001,0.030483406037092209,
5.3099999999999996,0.022598108276724815,
5.3125,0.019304554909467697,
5.3150000000000004,0.016395648941397667,
5.3174999999999999,0.01384735107421875,
5.3200000000000003,0.0096402568742632866,
5.3224999999999998,0.0079333782196044922,
5.3250000000000002,0.0063707432709634304,
5.3274999999999997,0.0049523515626788139,
5.3300000000000001,0.0022357702255249023,
5.3324999999999996,0.0008895000210031867,
5.335,-0.00043272972106933594,
5.3375000000000004,-0.0017068784218281507,
5.3399999999999999,-0.0038705270271748304,
5.3425000000000002,-0.00461578369140625,
5.3449999999999998,-0.0050725541077554226,
5.3475000000000001,-0.0051927566528320312,
5.3499999999999996,-0.0044955811463296413,
5.3525,-0.0037743649445474148,
5.3550000000000004,-0.0029329459648579359,
5.3574999999999999,-0.002091526985168457,
5.3600000000000003,-0.00081737840082496405,
5.3624999999999998,-0.00050485134124755859,
5.3650000000000002,-0.00048081082059070468,
5.3674999999999997,-0.00072121620178222656,
5.3700000000000001,-0.0017309188842773438,
5.3724999999999996,-0.0023319325409829617,
5.375,-0.0028608243446797132,
5.3775000000000004,-0.0032695136032998562,
5.3799999999999999,-0.0034377973061054945,
5.3825000000000003,-0.0031733512878417969,
5.3849999999999998,-0.0026925406418740749,
5.3875000000000002,-0.0020194053649902344,
5.3899999999999997,-0.00043272972106933594,
5.3925000000000001,0.000312527030473575,
5.3949999999999996,0.00093758106231689453,
5.3975,0.0013703107833862305,
5.4000000000000004,0.0013943513622507453,
5.4024999999999999,0.00098566222004592419,
5.4050000000000002,0.00028848648071289062,
5.4074999999999998,-0.00062505406094714999,
5.4100000000000001,-0.0026204190216958523,
5.4124999999999996,-0.0034858784638345242,
5.415,-0.0040628514252603054,
5.4175000000000004,-0.0042311353608965874,
5.4199999999999999,-0.0030050675850361586,
5.4225000000000003,-0.0015385946026071906,
5.4249999999999998,0.00038464865065179765,
5.4275000000000002,0.0026925406418740749,
5.4299999999999997,0.0077170133590698242,
5.4325000000000001,0.0100008649751544,
5.4349999999999996,0.011924108490347862,
5.4375,0.013294419273734093,
5.4400000000000004,0.014232000336050987,
5.4424999999999999,0.01384735107421875,
5.4450000000000003,0.013078054413199425,
5.4474999999999998,0.012092391960322857,
5.4500000000000002,0.01028935145586729,
5.4524999999999997,0.0098325815051794052,
5.4550000000000001,0.0097845001146197319,
5.4574999999999996,0.011106729507446289,
5.46,0.012356838211417198,
5.4625000000000004,0.013823310844600201,
5.4649999999999999,0.015409986488521099,
5.4675000000000002,0.01829485222697258,
5.4699999999999998,0.019400715827941895,
5.4725000000000001,0.020242135971784592,
5.4749999999999996,0.020819108933210373,
5.4775,0.021420121192932129,
5.4800000000000004,0.021588405594229698,
5.4824999999999999,0.021804770454764366,
5.4850000000000003,0.022141337394714355,
5.4874999999999998,0.023391446098685265,
5.4900000000000002,0.024353068321943283,
5.4924999999999997,0.02553105354309082,
5.4950000000000001,0.026877325028181076,
5.4974999999999996,0.029906433075666428,
5.5,0.031445026397705078,
5.5025000000000004,0.032935541123151779,
5.5049999999999999,0.03430585190653801,
5.5075000000000003,0.03658970445394516,
5.5099999999999998,0.037407081574201584,
5.5125000000000002,0.037984054535627365,
5.5149999999999997,0.038272541016340256,
5.5175000000000001,0.03812829777598381,
5.5199999999999996,0.0376715287566185,
5.5225,0.037070512771606445,
5.5250000000000004,0.036325257271528244,
5.5274999999999999,0.034738581627607346,
5.5300000000000002,0.034065447747707367,
5.5324999999999998,0.033560596406459808,
5.5350000000000001,0.033296149224042892,
5.5374999999999996,0.033320188522338867,
5.54,0.034329891204833984,
5.5425000000000004,0.035315554589033127,
5.5449999999999999,0.036613743752241135,
5.5475000000000003,0.040195785462856293,
5.5499999999999998,0.042527716606855392,
5.5525000000000002,0.045220255851745605,
5.5549999999999997,0.048345528542995453,
5.5575000000000001,0.055942337960004807,
5.5599999999999996,0.060341756790876389,
5.5625,0.065053701400756836,
5.5650000000000004,0.069861814379692078,
5.5674999999999999,0.078780852258205414,
5.5700000000000003,0.082314811646938324,
5.5724999999999998,0.084790989756584167,
5.5750000000000002,0.086017057299613953,
5.5774999999999997,0.083997651934623718,
5.5800000000000001,0.080776214599609375,
5.5824999999999996,0.076328717172145844,
5.585,0.070919595658779144,
5.5875000000000004,0.058706998825073242,
5.5899999999999999,0.052648782730102539,
5.5925000000000002,0.047047339379787445,
5.5949999999999998,0.042094986885786057,
5.5975000000000001,0.034546256065368652,
5.5999999999999996,0.031853716820478439,
5.6025,0.029714107513427734,
5.6050000000000004,0.027983188629150391,
5.6074999999999999,0.025170445442199707,
5.6100000000000003,0.02399246022105217,
5.6124999999999998,0.022958716377615929,
5.6150000000000002,0.022261541336774826,
5.6174999999999997,0.022381743416190147,
5.6200000000000001,0.023487608879804611,
5.6224999999999996,0.025290649384260178,
5.625,0.027646621689200401,
5.6275000000000004,0.032430689781904221,
5.6299999999999999,0.033584635704755783,
5.6325000000000003,0.032839380204677582,
5.6349999999999998,0.029305418953299522,
5.6375000000000002,0.011034607887268066,
5.6399999999999997,-0.0044234595261514187,
5.6425000000000001,-0.023896297439932823,
5.6449999999999996,-0.046518445014953613,
5.6475,-0.094671651721000671,
5.6500000000000004,-0.1155388355255127,
5.6524999999999999,-0.13034781813621521,
5.6550000000000002,-0.13587713241577148,
5.6574999999999998,-0.10673999786376953,
5.6600000000000001,-0.067000985145568848,
5.6624999999999996,-0.0085343923419713974,
5.665,0.068635746836662292,
5.6675000000000004,0.27129751443862915,
5.6699999999999999,0.38902401924133301,
5.6725000000000003,0.50999605655670166,
5.6749999999999998,0.62714558839797974,
5.6775000000000002,0.81963819265365601,
5.6799999999999997,0.88086944818496704,
5.6825000000000001,0.91135287284851074,
5.6849999999999996,0.90813142061233521,
5.6875,0.80105483531951904,
5.6900000000000004,0.70402723550796509,
5.6924999999999999,0.58637285232543945,
5.6950000000000003,0.45636159181594849,
5.6974999999999998,0.19480049610137939,
5.7000000000000002,0.079622268676757812,
5.7024999999999997,-0.016732215881347656,
5.7050000000000001,-0.090536676347255707,
5.7074999999999996,-0.1675625741481781,
5.71,-0.17453432083129883,
5.7125000000000004,-0.16561529040336609,
5.7149999999999999,-0.14561355113983154,
5.7175000000000002,-0.091426178812980652,
5.7199999999999998,-0.065053701400756836,
5.7225000000000001,-0.042647920548915863,
5.7249999999999996,-0.025338729843497276,
5.7275,-0.0057937703095376492,
5.7300000000000004,-0.0017790000420063734,
5.7324999999999999,2.4040540665737353e-05,
5.7350000000000003,0.00084141892148181796,
5.7374999999999998,0.0029810271225869656,
5.7400000000000002,0.0051927566528320312,
5.7424999999999997,0.0082939863204956055,
5.7450000000000001,0.01214047335088253,
5.7474999999999996,0.021011432632803917,
5.75,0.025651257485151291,
5.7525000000000004,0.030267041176557541,
5.7549999999999999,0.034834742546081543,
5.7575000000000003,0.043729744851589203,
5.7599999999999998,0.048032999038696289,
5.7625000000000002,0.05214393138885498,
5.7649999999999997,0.055942337960004807,
5.7675000000000001,0.062192879617214203,
5.7699999999999996,0.064428649842739105,
5.7725,0.066039368510246277,
5.7750000000000004,0.067097149789333344,
5.7774999999999999,0.068203017115592957,
5.7800000000000002,0.068635746836662292,
5.7824999999999998,0.069260798394680023,
5.7850000000000001,0.070222422480583191,
5.7874999999999996,0.073299609124660492,
5.79,0.075343057513237,
5.7925000000000004,0.077578827738761902,
5.7949999999999999,0.079862676560878754,
5.7975000000000003,0.084069773554801941,
5.7999999999999998,0.085848771035671234,
5.8025000000000002,0.087435446679592133,
5.8049999999999997,0.088901922106742859,
5.8075000000000001,0.092003151774406433,
5.8099999999999996,0.093950435519218445,
5.8125,0.096354484558105469,
5.8150000000000004,0.099311470985412598,
5.8174999999999999,0.10702848434448242,
5.8200000000000003,0.11176447570323944,
5.8224999999999998,0.11698126792907715,
5.8250000000000002,0.12263079732656479,
5.8274999999999997,0.13462702929973602,
5.8300000000000001,0.14075736701488495,
5.8324999999999996,0.14683961868286133,
5.835,0.15280167758464813,
5.8375000000000004,0.1643892228603363,
5.8399999999999999,0.17003874480724335,
5.8425000000000002,0.17568826675415039,
5.8449999999999998,0.18143396079540253,
5.8475000000000001,0.19343018531799316,
5.8499999999999996,0.19972881674766541,
5.8525,0.2061716765165329,
5.8550000000000004,0.21266262233257294,
5.8574999999999999,0.22504350543022156,
5.8600000000000003,0.23062090575695038,
5.8624999999999998,0.23557326197624207,
5.8650000000000002,0.23985247313976288,
5.8674999999999997,0.24646362662315369,
5.8700000000000001,0.24898788332939148,
5.8724999999999996,0.25117558240890503,
5.875,0.25317093729972839,
5.8775000000000004,0.25696933269500732,
5.8799999999999999,0.25872430205345154,
5.8825000000000003,0.26021480560302734,
5.8849999999999998,0.2612726092338562,
5.8875000000000002,0.26088795065879822,
5.8899999999999997,0.25894066691398621,
5.8925000000000001,0.25552690029144287,
5.8949999999999996,0.25059860944747925,
5.8975,0.23617427051067352,
5.9000000000000004,0.22701482474803925,
5.9024999999999999,0.21682164072990417,
5.9050000000000002,0.20590722560882568,
5.9074999999999998,0.18297255039215088,
5.9100000000000001,0.17140905559062958,
5.9124999999999996,0.15996575355529785,
5.915,0.14876286685466766,
5.9175000000000004,0.12710234522819519,
5.9199999999999999,0.11664470285177231,
5.9225000000000003,0.10640343278646469,
5.9249999999999998,0.096378527581691742,
5.9275000000000002,0.077001854777336121,
5.9299999999999997,0.067794322967529297,
5.9325000000000001,0.058971446007490158,
5.9349999999999996,0.050629377365112305,
5.9375,0.035796366631984711,
5.9400000000000004,0.029425621032714844,
5.9424999999999999,0.023800134658813477,
5.9450000000000003,0.018895864486694336,
5.9474999999999998,0.01108268927782774,
5.9500000000000002,0.0080054998397827148,
5.9524999999999997,0.0053610405884683132,
5.9550000000000001,0.0030291080474853516,
5.9574999999999996,-0.00091354054166004062,
5.96,-0.0026204190216958523,
5.9625000000000004,-0.0041109323501586914,
5.9649999999999999,-0.0053129596635699272,
5.9675000000000002,-0.0067313513718545437,
5.9699999999999998,-0.0067794322967529297,
5.9725000000000001,-0.0063947839662432671,
5.9749999999999996,-0.0055774054490029812,
5.9775,-0.0030291080474853516,
5.9800000000000004,-0.0015626351814717054,
5.9824999999999999,-0.00016828379011712968,
5.9850000000000003,0.0010097026824951172,
5.9874999999999998,0.0023319325409829617,
5.9900000000000002,0.0023800134658813477,
5.9924999999999997,0.002067486522719264,
5.9950000000000001,0.0014424324035644531,
5.9974999999999996,-0.00033656758023425937,
6,-0.0012981891632080078,99.585067749023438
6.0025000000000004,-0.0021636486053466797,
6.0049999999999999,-0.0029569864273071289,
6.0075000000000003,-0.0042551755905151367,
6.0099999999999998,-0.0048081083223223686,
6.0125000000000002,-0.0054091215133666992,
6.0149999999999997,-0.0060101351700723171,
6.0175000000000001,-0.0073804459534585476,
6.0199999999999996,-0.0080535812303423882,
6.0225,-0.0086305541917681694,
6.0250000000000004,-0.009039243683218956,
6.0274999999999999,-0.009135405533015728,
6.0300000000000002,-0.0087507572025060654,
6.0324999999999998,-0.0081016626209020615,
6.0350000000000001,-0.0072362027131021023,
6.0374999999999996,-0.0051927566528320312,
6.04,-0.0042070946656167507,
6.0425000000000004,-0.0033897161483764648,
6.0449999999999999,-0.0027406215667724609,
6.0475000000000003,-0.0022117297630757093,
6.0499999999999998,-0.002283851383253932,
6.0525000000000002,-0.0025482974015176296,
6.0549999999999997,-0.0029089055024087429,
6.0575000000000001,-0.0036301217041909695,
6.0599999999999996,-0.0037984054069966078,
6.0625,-0.0037503242492675781,
6.0650000000000004,-0.0034137568436563015,
6.0674999999999999,-0.0017309188842773438,
6.0700000000000003,-0.00038464865065179765,
6.0724999999999998,0.0012020270805805922,
6.0750000000000002,0.0029810271225869656,
6.0774999999999997,0.0066351890563964844,
6.0800000000000001,0.0083661079406738281,
6.0824999999999996,0.0099047031253576279,
6.085,0.011226932518184185,
6.0875000000000004,0.013318459503352642,
6.0899999999999999,0.014183918945491314,
6.0925000000000002,0.015025338158011436,
6.0949999999999998,0.01584271714091301,
6.0975000000000001,0.017549594864249229,
6.0999999999999996,0.018342932686209679,
6.1025,0.019040107727050781,
6.1050000000000004,0.019496878609061241,
6.1074999999999999,0.019520919770002365,
6.1100000000000003,0.019016068428754807,
6.1124999999999998,0.018246769905090332,
6.1150000000000002,0.017285149544477463,
6.1174999999999997,0.015337864868342876,
6.1200000000000001,0.014640688896179199,
6.1224999999999996,0.014256040565669537,
6.125,0.014256040565669537,
6.1275000000000004,0.015289783477783203,
6.1299999999999999,0.016179284080862999,
6.1325000000000003,0.017164945602416992,
6.1349999999999998,0.018126567825675011,
6.1375000000000002,0.019713243469595909,
6.1399999999999997,0.020338296890258789,
6.1425000000000001,0.020867189392447472,
6.1449999999999996,0.021420121192932129,
6.1475,0.022838514298200607,
6.1500000000000004,0.023800134658813477,
6.1524999999999999,0.024954080581665039,
6.1550000000000002,0.026228230446577072,
6.1574999999999998,0.028872689232230186,
6.1600000000000001,0.030050676316022873,
6.1624999999999996,0.031036337837576866,
6.165,0.031781595200300217,
6.1675000000000004,0.032430689781904221,
6.1699999999999999,0.032334528863430023,
6.1725000000000003,0.031997960060834885,
6.1749999999999998,0.031420987099409103,
6.1775000000000002,0.029810270294547081,
6.1799999999999997,0.028968852013349533,
6.1825000000000001,0.028295716270804405,
6.1849999999999996,0.027983188629150391,
6.1875,0.029425621032714844,
6.1900000000000004,0.031637351959943771,
6.1924999999999999,0.035075150430202484,
6.1950000000000003,0.039739012718200684,
6.1974999999999998,0.052167974412441254,
6.2000000000000002,0.059235893189907074,
6.2024999999999997,0.066207647323608398,
6.2050000000000001,0.07248222827911377,
6.2074999999999996,0.080776214599609375,
6.21,0.081978246569633484,
6.2125000000000004,0.080896422266960144,
6.2149999999999999,0.077626906335353851,
6.2175000000000002,0.06570279598236084,
6.2199999999999998,0.057985782623291016,
6.2225000000000001,0.049884121865034103,
6.2249999999999996,0.041902661323547363,
6.2275,0.028199553489685059,
6.2300000000000004,0.022982757538557053,
6.2324999999999999,0.018943946808576584,
6.2350000000000003,0.015986960381269455,
6.2374999999999998,0.012380878441035748,
6.2400000000000002,0.011178851127624512,
6.2424999999999997,0.010072986595332623,
6.2450000000000001,0.0088469190523028374,
6.2474999999999996,0.0060582160949707031,
6.25,0.0046638650819659233,
6.2525000000000004,0.0036060810089111328,
6.2549999999999999,0.0031012296676635742,
6.2575000000000003,0.0044955811463296413,
6.2599999999999998,0.0064669055864214897,
6.2625000000000002,0.0089671220630407333,
6.2649999999999997,0.011515418998897076,
6.2675000000000001,0.013655027374625206,
6.2699999999999996,0.011419257149100304,
6.2725,0.0057697296142578125,
6.2750000000000004,-0.0039426488801836967,
6.2774999999999999,-0.036373339593410492,
6.2800000000000002,-0.058105986565351486,
6.2824999999999998,-0.081809960305690765,
6.2850000000000001,-0.10544180870056152,
6.2874999999999996,-0.1414545476436615,
6.29,-0.14753679931163788,
6.2925000000000004,-0.14133433997631073,
6.2949999999999999,-0.11996229737997055,
6.2975000000000003,-0.023896297439932823,
6.2999999999999998,0.052023731172084808,
6.3025000000000002,0.14513275027275085,
6.3049999999999997,0.25235354900360107,
6.3075000000000001,0.48960965871810913,
6.3099999999999996,0.60675919055938721,
6.3125,0.71316266059875488,
6.3150000000000004,0.80136740207672119,
6.3174999999999999,0.89822673797607422,
6.3200000000000003,0.89846712350845337,
6.3224999999999998,0.86478632688522339,
6.3250000000000002,0.79903542995452881,
6.3274999999999997,0.59091651439666748,
6.3300000000000001,0.46304485201835632,
6.3324999999999996,0.33072572946548462,
6.335,0.20251750946044922,
6.3375000000000004,-0.012645324692130089,
6.3399999999999999,-0.089791417121887207,
6.3425000000000002,-0.14373838901519775,
6.3449999999999998,-0.17518341541290283,
6.3475000000000001,-0.18172244727611542,
6.3499999999999996,-0.16515851020812988,
6.3525,-0.14150261878967285,
6.3550000000000004,-0.088877879083156586,
6.3574999999999999,-0.065630674362182617,
6.3600000000000003,-0.046494405716657639,
6.3624999999999998,-0.031829677522182465,
6.3650000000000002,-0.021299919113516808,
6.3674999999999997,-0.009351770393550396,
6.3700000000000001,-0.0060341758653521538,
6.3724999999999996,-0.0034377973061054945,
6.375,0.0014424324035644531,
6.3775000000000004,0.0041109323501586914,
6.3799999999999999,0.0069477162323892117,
6.3825000000000003,0.0099287433549761772,
6.3849999999999998,0.016059082001447678,
6.3875000000000002,0.019232433289289474,
6.3899999999999997,0.02245386503636837,
6.3925000000000001,0.025771459564566612,
6.3949999999999996,0.032286446541547775,
6.3975,0.035291515290737152,
6.4000000000000004,0.037911932915449142,
6.4024999999999999,0.040051542222499847,
6.4050000000000002,0.04257579892873764,
6.4074999999999998,0.043056607246398926,
6.4100000000000001,0.043176811188459396,
6.4124999999999996,0.043104689568281174,
6.415,0.043272972106933594,
6.4175000000000004,0.0438259057700634,
6.4199999999999999,0.044859647750854492,
6.4225000000000003,0.046350162476301193,
6.4249999999999998,0.050653420388698578,
6.4275000000000002,0.053321920335292816,
6.4299999999999997,0.056254863739013672,
6.4325000000000001,0.059380136430263519,
6.4349999999999996,0.066207647323608398,
6.4375,0.0699339359998703,
6.4400000000000004,0.073876582086086273,
6.4424999999999999,0.078059636056423187,
6.4450000000000003,0.086978673934936523,
6.4474999999999998,0.091522336006164551,
6.4500000000000002,0.096017919480800629,
6.4524999999999997,0.10029713809490204,
6.4550000000000001,0.10794202983379364,
6.4574999999999996,0.11121153831481934,
6.46,0.11419256776571274,
6.4625000000000004,0.11700531095266342,
6.4649999999999999,0.12275099754333496,
6.4675000000000002,0.1260685920715332,
6.4699999999999998,0.12993912398815155,
6.4725000000000001,0.13450682163238525,
6.4749999999999996,0.14599820971488953,
6.4775,0.15289783477783203,
6.4800000000000004,0.16044656932353973,
6.4824999999999999,0.16847610473632812,
6.4850000000000003,0.17677009105682373,
6.4874999999999998,0.19330999255180359,
6.4900000000000002,0.20109912753105164,
6.4924999999999997,0.2083112895488739,
6.4950000000000001,0.21482627093791962,
6.4974999999999996,0.22547623515129089,
6.5,0.22963523864746094,
6.5025000000000004,0.2331211268901825,
6.5049999999999999,0.23867449164390564,
6.5075000000000003,0.24100641906261444,
6.5099999999999998,0.24321815371513367,
6.5125000000000002,0.24535775184631348,
6.5149999999999997,0.24949273467063904,
6.5175000000000001,0.25124770402908325,
6.5199999999999996,0.25259396433830261,
6.5225,0.25324305891990662,
6.5250000000000004,0.25156021118164062,
6.5274999999999999,0.24877151846885681,
6.5300000000000002,0.24444422125816345,
6.5324999999999998,0.23853024840354919,
6.5350000000000001,0.22199034690856934,
6.5374999999999996,0.21162888407707214,
6.54,0.20020961761474609,
6.5425000000000004,0.18797299265861511,
6.5449999999999999,0.16229769587516785,
6.5475000000000003,0.14941196143627167,
6.5499999999999998,0.1367906779050827,
6.5525000000000002,0.1245780810713768,
6.5549999999999997,0.10159532725811005,
6.5575000000000001,0.090825162827968597,
6.5599999999999996,0.080439649522304535,
6.5625,0.070390701293945312,
6.5650000000000004,0.051278471946716309,
6.5674999999999999,0.042263269424438477,
6.5700000000000003,0.033728878945112228,
6.5724999999999998,0.025795500725507736,
6.5750000000000002,0.012284716591238976,
6.5774999999999997,0.006923675537109375,
6.5800000000000001,0.0025723378639668226,
6.5824999999999996,-0.00079333782196044922,
6.585,-0.0049763917922973633,
6.5875000000000004,-0.0061543784104287624,
6.5899999999999999,-0.0070198378525674343,
6.5925000000000002,-0.0078131761401891708,
6.5949999999999998,-0.0099768247455358505,
6.5975000000000001,-0.011563500389456749,
6.5999999999999996,-0.013558864593505859,
6.6025,-0.015866756439208984,
6.6050000000000004,-0.02062678337097168,
6.6074999999999999,-0.022598108276724815,
6.6100000000000003,-0.02399246022105217,
6.6124999999999998,-0.024593472480773926,
6.6150000000000002,-0.023006796836853027,
6.6174999999999997,-0.02091526985168457,
6.6200000000000001,-0.018150608986616135,
6.6224999999999996,-0.015025338158011436,
6.625,-0.0089430809020996094,
6.6275000000000004,-0.006659229751676321,
6.6299999999999999,-0.0051927566528320312,
6.6325000000000003,-0.0046879053115844727,
6.6349999999999998,-0.0065871081314980984,
6.6375000000000002,-0.0087267160415649414,
6.6399999999999997,-0.011299054138362408,
6.6425000000000001,-0.014063715934753418,
6.6449999999999996,-0.018943946808576584,
6.6475,-0.02062678337097168,
6.6500000000000004,-0.021612446755170822,
6.6524999999999999,-0.021876892074942589,
6.6550000000000002,-0.020554661750793457,
6.6574999999999998,-0.019232433289289474,
6.6600000000000001,-0.017693838104605675,
6.6624999999999996,-0.016155242919921875,
6.665,-0.013558864593505859,
6.6675000000000004,-0.012693405151367188,
6.6699999999999999,-0.01216451358050108,
6.6725000000000003,-0.011948148719966412,
6.6749999999999998,-0.012236635200679302,
6.6775000000000002,-0.012597243301570415,
6.6799999999999997,-0.012981891632080078,
6.6825000000000001,-0.013318459503352642,
6.6849999999999996,-0.013727148994803429,
6.6875,-0.013727148994803429,
6.6900000000000004,-0.01353482436388731,
6.6924999999999999,-0.013174216262996197,
6.6950000000000003,-0.011876027099788189,
6.6974999999999998,-0.010962486267089844,
6.7000000000000002,-0.0098566217347979546,
6.7024999999999997,-0.0086065139621496201,
6.7050000000000001,-0.0058178110048174858,
6.7074999999999996,-0.0044234595261514187,
6.71,-0.0031252703629434109,
6.7125000000000004,-0.002043446060270071,
6.7149999999999999,-0.00086545944213867188,
6.7175000000000002,-0.00084141892148181796,
6.7199999999999998,-0.0011779865017160773,
6.7225000000000001,-0.0018030405044555664,
6.7249999999999996,-0.0034858784638345242,
6.7275,-0.0042311353608965874,
6.7300000000000004,-0.0047600269317626953,
6.7324999999999999,-0.0049523515626788139,
6.7350000000000003,-0.0042792162857949734,
6.7374999999999998,-0.0035099189262837172,
6.7400000000000002,-0.0025963783264160156,
6.7424999999999997,-0.0016587972640991211,
6.7450000000000001,-0.00012020270514767617,
6.7474999999999996,0.00036060810089111328,
6.75,0.00060101354029029608,
6.7525000000000004,0.00072121620178222656,
6.7549999999999999,0.00084141892148181796,
6.7575000000000003,0.0011058648815378547,
6.7599999999999998,0.0015626351814717054,
6.7625000000000002,0.002259810920804739,
6.7649999999999997,0.0042792162857949734,
6.7675000000000001,0.0053850812837481499,
6.7699999999999996,0.0064188241958618164,
6.7725,0.0072362027131021023,
6.7750000000000004,0.0080535812303423882,
6.7774999999999999,0.0080054998397827148,
6.7800000000000002,0.0078131761401891708,
6.7824999999999998,0.0075487298890948296,
6.7850000000000001,0.0075246891938149929,
6.7874999999999996,0.0080295410007238388,
6.79,0.0089671220630407333,
6.7925000000000004,0.010337432846426964,
6.7949999999999999,0.014063715934753418,
6.7975000000000003,0.016203325241804123,
6.7999999999999998,0.018342932686209679,
6.8025000000000002,0.020410418510437012,
6.8049999999999997,0.024136703461408615,
6.8075000000000001,0.025843581184744835,
6.8099999999999996,0.027502378448843956,
6.8125,0.029089054092764854,
6.8150000000000004,0.032070081681013107,
6.8174999999999999,0.033199988305568695,
6.8200000000000003,0.033945243805646896,
6.8224999999999998,0.03413756936788559,
6.8250000000000002,0.032647054642438889,
6.8274999999999997,0.031132500618696213,
6.8300000000000001,0.029449662193655968,
6.8324999999999996,0.027983188629150391,
6.835,0.027502378448843956,
6.8375000000000004,0.029305418953299522,
6.8399999999999999,0.032791297882795334,
6.8425000000000002,0.037935972213745117,
6.8449999999999998,0.052119892090559006,
6.8475000000000001,0.060053270310163498,
6.8499999999999996,0.067577958106994629,
6.8525,0.073996782302856445,
6.8550000000000004,0.081160865724086761,
6.8574999999999999,0.081257030367851257,
6.8600000000000003,0.079021260142326355,
6.8624999999999998,0.074766084551811218,
6.8650000000000002,0.062337122857570648,
6.8674999999999997,0.055413447320461273,
6.8700000000000001,0.048754215240478516,
6.8724999999999996,0.042840242385864258,
6.875,0.033897161483764648,
6.8775000000000004,0.030771892517805099,
6.8799999999999999,0.028247635811567307,
6.8825000000000003,0.026011865586042404,
6.8849999999999998,0.021203756332397461,
6.8875000000000002,0.018222730606794357,
6.8899999999999997,0.014808973297476768,
6.8925000000000001,0.01105864904820919,
6.8949999999999996,0.0035580000840127468,
6.8975,0.00045677027083002031,
6.9000000000000004,-0.0017068784218281507,
6.9024999999999999,-0.0026684999465942383,
6.9050000000000002,-0.00045677027083002031,
6.9074999999999998,0.0026204190216958523,
6.9100000000000001,0.0065390272065997124,
6.9124999999999996,0.010722081176936626,
6.915,0.016563933342695236,
6.9175000000000004,0.016275446861982346,
6.9199999999999999,0.012573203071951866,
6.9225000000000003,0.0046398243866860867,
6.9249999999999998,-0.025314688682556152,
6.9275000000000002,-0.046855013817548752,
6.9299999999999997,-0.071472525596618652,
6.9325000000000001,-0.097364187240600586,
6.9349999999999996,-0.1430412232875824,
6.9375,-0.1567443311214447,
6.9400000000000004,-0.15994171798229218,
6.9424999999999999,-0.14948408305644989,
6.9450000000000003,-0.077410541474819183,
6.9474999999999998,-0.012885729782283306,
6.9500000000000002,0.070583030581474304,
6.9524999999999997,0.17112056910991669,
6.9550000000000001,0.40816029906272888,
6.9574999999999996,0.53343558311462402,
6.96,0.65390270948410034,
6.9625000000000004,0.76184475421905518,
6.9649999999999999,0.91125667095184326,
6.9675000000000002,0.94106698036193848,
6.9699999999999998,0.936379075050354,
6.9725000000000001,0.89683234691619873,
6.9749999999999996,0.72487038373947144,
6.9775,0.60425901412963867,
6.9800000000000004,0.47124266624450684,
6.9824999999999999,0.33488473296165466,
6.9850000000000003,0.085968971252441406,
6.9874999999999998,-0.013078054413199425,
6.9900000000000002,-0.089575052261352539,
6.9924999999999997,-0.14227192103862762,
6.9950000000000001,-0.18189072608947754,
6.9974999999999996,-0.17576038837432861,
7,-0.1584271639585495,98.003631591796875
7.0025000000000004,-0.13467511534690857,
7.0049999999999999,-0.083733201026916504,
7.0075000000000003,-0.062072675675153732,
7.0099999999999998,-0.04478752613067627,
7.0125000000000002,-0.032070081681013107,
7.0149999999999997,-0.017597675323486328,
7.0175000000000001,-0.013823310844600201,
7.0199999999999996,-0.011034607887268066,
7.0225,-0.0084622707217931747,
7.0250000000000004,-0.0026444594841450453,
7.0274999999999999,0.00067313516046851873,
7.0300000000000002,0.0039907298050820827,
7.0324999999999998,0.0070679187774658203,
7.0350000000000001,0.011900067329406738,
7.0374999999999996,0.013606945984065533,
7.04,0.015049378387629986,
7.0425000000000004,0.016419690102338791,
7.0449999999999999,0.019929608330130577,
7.0475000000000003,0.022429823875427246,
7.0499999999999998,0.02553105354309082,
7.0525000000000002,0.029185216873884201,
7.0549999999999997,0.037334959954023361,
7.0575000000000001,0.041397809982299805,
7.0599999999999996,0.04507601261138916,
7.0625,0.048177242279052734,
7.0650000000000004,0.05214393138885498,
7.0674999999999999,0.053009390830993652,
7.0700000000000003,0.053273838013410568,
7.0724999999999998,0.053129594773054123,
7.0750000000000002,0.052552621811628342,
7.0774999999999997,0.05260070413351059,
7.0800000000000001,0.053105555474758148,
7.0824999999999996,0.054163336753845215,
7.085,0.058033864945173264,
7.0875000000000004,0.06075044721364975,
7.0899999999999999,0.063851676881313324,
7.0925000000000002,0.067241393029689789,
7.0949999999999998,0.074477598071098328,
7.0975000000000001,0.078227922320365906,
7.0999999999999996,0.082098446786403656,
7.1025,0.086065135896205902,
7.1050000000000004,0.094599530100822449,
7.1074999999999999,0.099239349365234375,
7.1100000000000003,0.10416766256093979,
7.1124999999999998,0.10936041921377182,
7.1150000000000002,0.12037098407745361,
7.1174999999999997,0.12604455649852753,
7.1200000000000001,0.13176620006561279,
7.1224999999999996,0.13746380805969238,
7.125,0.14888307452201843,
7.1275000000000004,0.15462875366210938,
7.1299999999999999,0.16049465537071228,
7.1325000000000003,0.16648074984550476,
7.1349999999999998,0.1790299117565155,
7.1375000000000002,0.18554489314556122,
7.1399999999999997,0.19213199615478516,
7.1425000000000001,0.19869506359100342,
7.1449999999999996,0.21138846874237061,
7.1475,0.21727840602397919,
7.1500000000000004,0.22275964915752411,
7.1524999999999999,0.22778412699699402,
7.1550000000000002,0.23641467094421387,
7.1574999999999998,0.24004480242729187,
7.1600000000000001,0.24324218928813934,
7.1624999999999996,0.2459828108549118,
7.165,0.25009375810623169,
7.1675000000000004,0.25127172470092773,
7.1699999999999999,0.25170445442199707,
7.1725000000000003,0.25127172470092773,
7.1749999999999998,0.24718484282493591,
7.1775000000000002,0.24329027533531189,
7.1799999999999997,0.23812155425548553,
7.1825000000000001,0.23167869448661804,
7.1849999999999996,0.21554748713970184,
7.1875,0.20619571208953857,
7.1900000000000004,0.19621889293193817,
7.1924999999999999,0.18585741519927979,
7.1950000000000003,0.16436517238616943,
7.1974999999999998,0.15337865054607391,
7.2000000000000002,0.14227192103862762,
7.2024999999999997,0.13097286224365234,
7.2050000000000001,0.10782182216644287,
7.2074999999999996,0.096017919480800629,
7.21,0.08416593074798584,
7.2125000000000004,0.07248222827911377,
7.2149999999999999,0.050292812287807465,
7.2175000000000002,0.040219824761152267,
7.2199999999999998,0.031036337837576866,
7.2225000000000001,0.022886594757437706,
7.2249999999999996,0.0096402568742632866,
7.2275,0.0044475002214312553,
7.2300000000000004,7.2121620178222656e-05,
7.2324999999999999,-0.0036541621666401625,
7.2350000000000003,-0.0095921754837036133,
7.2374999999999998,-0.011996230110526085,
7.2400000000000002,-0.014087757095694542,
7.2424999999999997,-0.015890797600150108,
7.2450000000000001,-0.018679499626159668,
7.2474999999999996,-0.019689202308654785,
7.25,-0.02045850083231926,
7.2525000000000004,-0.021612446755170822,
7.2549999999999999,-0.022141337394714355,
7.2575000000000003,-0.022694271057844162,
7.2599999999999998,-0.023343365639448166,
7.2625000000000002,-0.024064581841230392,
7.2649999999999997,-0.02553105354309082,
7.2675000000000001,-0.026108026504516602,
7.2699999999999996,-0.026396512985229492,
7.2725,-0.025747418403625488,
7.2750000000000004,-0.024737715721130371,
7.2774999999999999,-0.023343365639448166,
7.2800000000000002,-0.021660527214407921,
7.2824999999999998,-0.018342932686209679,
7.2850000000000001,-0.017140906304121017,
7.2874999999999996,-0.01646777056157589,
7.29,-0.016491811722517014,
7.2925000000000004,-0.018679499626159668,
7.2949999999999999,-0.02062678337097168,
7.2975000000000003,-0.022886594757437706,
7.2999999999999998,-0.025194486603140831,
7.3025000000000002,-0.028848648071289062,
7.3049999999999997,-0.029786229133605957,
7.3075000000000001,-0.029954513534903526,
7.3099999999999996,-0.029329460114240646,
7.3125,-0.026156108826398849,
7.3150000000000004,-0.023944377899169922,
7.3174999999999999,-0.021564364433288574,
7.3200000000000003,-0.019304554909467697,
7.3224999999999998,-0.017285149544477463,
7.3250000000000002,-0.014568567276000977,
7.3274999999999997,-0.013967554084956646,
7.3300000000000001,-0.01384735107421875,
7.3324999999999996,-0.014688770286738873,
7.335,-0.015482108108699322,
7.3375000000000004,-0.016395648941397667,
7.3399999999999999,-0.017309188842773438,
7.3425000000000002,-0.018174648284912109,
7.3449999999999998,-0.019569000229239464,
7.3475000000000001,-0.020025771111249924,
7.3499999999999996,-0.02029021643102169,
7.3525,-0.020145973190665245,
7.3550000000000004,-0.01966516301035881,
7.3574999999999999,-0.018871825188398361,
7.3600000000000003,-0.017741918563842773,
7.3624999999999998,-0.014448365196585655,
7.3650000000000002,-0.012404918670654297,
7.3674999999999997,-0.010241270065307617,
7.3700000000000001,-0.0081257028505206108,
7.3724999999999996,-0.004784067627042532,
7.375,-0.0038945674896240234,
7.3775000000000004,-0.0037262837868183851,
7.3799999999999999,-0.00430325698107481,
7.3825000000000003,-0.0074044866487383842,
7.3849999999999998,-0.0095921754837036133,
7.3875000000000002,-0.011900067329406738,
7.3899999999999997,-0.014039675705134869,
7.3925000000000001,-0.016924541443586349,
7.3949999999999996,-0.01738131046295166,
7.3975,-0.017068784683942795,
7.4000000000000004,-0.016059082001447678,
7.4024999999999999,-0.012404918670654297,
7.4050000000000002,-0.010072986595332623,
7.4074999999999998,-0.0075727701187133789,
7.4100000000000001,-0.0050725541077554226,
7.4124999999999996,-0.00033656758023425937,
7.415,0.0017790000420063734,
7.4175000000000004,0.0036782026290893555,
7.4199999999999999,0.0052889189682900906,
7.4225000000000003,0.0074525675736367702,
7.4249999999999998,0.0079093379899859428,
7.4275000000000002,0.0078852977603673935,
7.4299999999999997,0.0074044866487383842,
7.4325000000000001,0.0052408380433917046,
7.4349999999999996,0.0037984054069966078,
7.4375,0.002307891845703125,
7.4400000000000004,0.00096162164118140936,
7.4424999999999999,-0.00062505406094714999,
7.4450000000000003,-0.00060101354029029608,
7.4474999999999998,2.4040540665737353e-05,
7.4500000000000002,0.0012741487007588148,
7.4524999999999997,0.0052167973481118679,
7.4550000000000001,0.0076208515092730522,
7.4574999999999996,0.010097026824951172,
7.46,0.01245300006121397,
7.4625000000000004,0.016275446861982346,
7.4649999999999999,0.017573636025190353,
7.4675000000000002,0.018391013145446777,
7.4699999999999998,0.018775662407279015,
7.4725000000000001,0.018631419166922569,
7.4749999999999996,0.01829485222697258,
7.4775,0.017958283424377441,
7.4800000000000004,0.017693838104605675,
7.4824999999999999,0.017597675323486328,
7.4850000000000003,0.017765959724783897,
7.4874999999999998,0.018054446205496788,
7.4900000000000002,0.018366973847150803,
7.4924999999999997,0.018751621246337891,
7.4950000000000001,0.018751621246337891,
7.4974999999999996,0.018655460327863693,
7.5,0.018559297546744347,
7.5025000000000004,0.018943946808576584,
7.5049999999999999,0.019785365089774132,
7.5075000000000003,0.021347999572753906,
7.5099999999999998,0.023776095360517502,
7.5125000000000002,0.031348865479230881,
7.5149999999999997,0.036373339593410492,
7.5175000000000001,0.041998825967311859,
7.5199999999999996,0.047912798821926117,
7.5225,0.059283971786499023,
7.5250000000000004,0.064043998718261719,
7.5274999999999999,0.067746244370937347,
7.5300000000000002,0.070150300860404968,
7.5324999999999998,0.07060706615447998,
7.5350000000000001,0.068635746836662292,
7.5374999999999996,0.06531815230846405,
7.54,0.060822568833827972,
7.5425000000000004,0.04935523122549057,
7.5449999999999999,0.042960446327924728,
7.5475000000000003,0.036493539810180664,
7.5499999999999998,0.030170878395438194,
7.5525000000000002,0.018823742866516113,
7.5549999999999997,0.013967554084956646,
7.5575000000000001,0.0097364187240600586,
7.5599999999999996,0.0060341758653521538,
7.5625,0.00019232432532589883,
7.5650000000000004,-0.0020194053649902344,
7.5674999999999999,-0.0037022433243691921,
7.5700000000000003,-0.004735986702144146,
7.5724999999999998,-0.0042792162857949734,
7.5750000000000002,-0.0025002162437886,
7.5774999999999997,0.00033656758023425937,
7.5800000000000001,0.0041109323501586914,
7.5824999999999996,0.012621283531188965,
7.585,0.015962919220328331,
7.5875000000000004,0.017357271164655685,
7.5899999999999999,0.015770595520734787,
7.5925000000000002,-0.00016828379011712968,
7.5949999999999998,-0.015698473900556564,
7.5975000000000001,-0.036253135651350021,
7.5999999999999996,-0.061062972992658615,
7.6025,-0.11710147559642792,
7.6050000000000004,-0.14342586696147919,
7.6074999999999999,-0.16455750167369843,
7.6100000000000003,-0.17701050639152527,
7.6124999999999998,-0.16229769587516785,
7.6150000000000002,-0.12931406497955322,
7.6174999999999997,-0.076641246676445007,
7.6200000000000001,-0.0037022433243691921,
7.6224999999999996,0.19790172576904297,
7.625,0.32009980082511902,
7.6275000000000004,0.44958215951919556,
7.6299999999999999,0.57954531908035278,
7.6325000000000003,0.8096613883972168,
7.6349999999999998,0.89426004886627197,
7.6375000000000002,0.94962537288665771,
7.6399999999999997,0.97109359502792358,
7.6425000000000001,0.90603989362716675,
7.6449999999999996,0.82322025299072266,
7.6475,0.71371555328369141,
7.6500000000000004,0.58529102802276611,
7.6524999999999999,0.30803143978118896,
7.6550000000000002,0.17729899287223816,
7.6574999999999998,0.062096714973449707,
7.6600000000000001,-0.03231048583984375,
7.6624999999999996,-0.14970044791698456,
7.665,-0.17402946949005127,
7.6675000000000004,-0.17951071262359619,
7.6699999999999999,-0.17068783938884735,
7.6725000000000003,-0.12950639426708221,
7.6749999999999998,-0.10568221658468246,
7.6775000000000002,-0.083853408694267273,
7.6799999999999997,-0.065678760409355164,
7.6825000000000001,-0.041758418083190918,
7.6849999999999996,-0.034882824867963791,
7.6875,-0.030050676316022873,
7.6900000000000004,-0.026228230446577072,
7.6924999999999999,-0.018631419166922569,
7.6950000000000003,-0.014232000336050987,
7.6974999999999998,-0.0094960136339068413,
7.7000000000000002,-0.0047119460068643093,
7.7024999999999997,0.0037743649445474148,
