Data Set 1:Time(s),Data Set 1:EKG(mV),Data Set 1:Heart Rate(bpm)
0,0.21735052764415741,81.395347595214844
0.0025000000000000001,0.22247116267681122,
0.0050000000000000001,0.22730331122875214,
0.0074999999999999997,0.23172676563262939,
0.01,0.23559729754924774,
0.012500000000000001,0.23877064883708954,
0.014999999999999999,0.24232864379882812,
0.017500000000000002,0.24240076541900635,
0.02,0.2383379191160202,
0.022499999999999999,0.23398658633232117,
0.025000000000000001,0.22800049185752869,
0.0275,0.22042772173881531,
0.029999999999999999,0.20100295543670654,
0.032500000000000001,0.18955966830253601,
0.035000000000000003,0.17727494239807129,
0.037499999999999999,0.16446134448051453,
0.040000000000000001,0.13811290264129639,
0.042500000000000003,0.12496273219585419,
0.044999999999999998,0.11205296218395233,
0.047500000000000001,0.099431678652763367,
0.050000000000000003,0.075367093086242676,
0.052499999999999998,0.064019963145256042,
0.055,0.053177677094936371,
0.057500000000000002,0.042888324707746506,
0.059999999999999998,0.024136703461408615,
0.0625,0.015746554359793663,
0.065000000000000002,0.0080054998397827148,
0.067500000000000004,0.00091354054166004062,
0.070000000000000007,-0.011515418998897076,
0.072499999999999995,-0.016924541443586349,
0.074999999999999997,-0.021876892074942589,
0.077499999999999999,-0.026348432525992393,
0.080000000000000002,-0.033849082887172699,
0.082500000000000004,-0.036830108612775803,
0.085000000000000006,-0.039306282997131348,
0.087499999999999994,-0.041277609765529633,
0.089999999999999997,-0.043970149010419846,
0.092499999999999999,-0.04490773007273674,
0.095000000000000001,-0.045749150216579437,
0.097500000000000003,-0.046638648957014084,
0.10000000000000001,-0.048898458480834961,
0.10249999999999999,-0.050268769264221191,
0.105,-0.05168716236948967,
0.1075,-0.053033433854579926,
0.11,-0.054788392037153244,
0.1125,-0.054860513657331467,
0.115,-0.05430757999420166,
0.11749999999999999,-0.053153634071350098,
0.12,-0.049667757004499435,
0.1225,-0.047792594879865646,
0.125,-0.046181879937648773,
0.1275,-0.045027934014797211,
0.13,-0.044475000351667404,
0.13250000000000001,-0.044955812394618988,
0.13500000000000001,-0.045749150216579437,
0.13750000000000001,-0.046590566635131836,
0.14000000000000001,-0.047335825860500336,
0.14249999999999999,-0.046975217759609222,
0.14499999999999999,-0.046061675995588303,
0.14749999999999999,-0.04478752613067627,
0.14999999999999999,-0.042191147804260254,
0.1525,-0.041518013924360275,
0.155,-0.041614174842834473,
0.1575,-0.042671959847211838,
0.16,-0.047504108399152756,
0.16250000000000001,-0.050845742225646973,
0.16500000000000001,-0.054331623017787933,
0.16750000000000001,-0.057529013603925705,
0.17000000000000001,-0.061688028275966644,
0.17249999999999999,-0.062192879617214203,
0.17499999999999999,-0.061639945954084396,
0.17749999999999999,-0.060125391930341721,
0.17999999999999999,-0.055485568940639496,
0.1825,-0.053009390830993652,
0.185,-0.050845742225646973,
0.1875,-0.049186944961547852,
0.19,-0.04815320298075676,
0.1925,-0.047648351639509201,
0.19500000000000001,-0.047864716500043869,
0.19750000000000001,-0.048105120658874512,
0.20000000000000001,-0.048201285302639008,
0.20250000000000001,-0.047431986778974533,
0.20499999999999999,-0.046566527336835861,
0.20749999999999999,-0.045436620712280273,
0.20999999999999999,-0.042984485626220703,
0.21249999999999999,-0.041926704347133636,
0.215,-0.041157405823469162,
0.2175,-0.040700636804103851,
0.22,-0.040724676102399826,
0.2225,-0.041085284203290939,
0.22500000000000001,-0.041638217866420746,
0.22750000000000001,-0.042239230126142502,
0.23000000000000001,-0.043585501611232758,
0.23250000000000001,-0.044210553169250488,
0.23499999999999999,-0.044835608452558517,
0.23749999999999999,-0.045340459793806076,
0.23999999999999999,-0.045941472053527832,
0.24249999999999999,-0.045845311135053635,
0.245,-0.045388542115688324,
0.2475,-0.044499039649963379,
0.25,-0.04154205322265625,
0.2525,-0.039618812501430511,
0.255,-0.037599407136440277,
0.25750000000000001,-0.03567616268992424,
0.26000000000000001,-0.033031702041625977,
0.26250000000000001,-0.032623015344142914,
0.26500000000000001,-0.032935541123151779,
0.26750000000000002,-0.033945243805646896,
0.27000000000000002,-0.037455163896083832,
0.27250000000000002,-0.039498608559370041,
0.27500000000000002,-0.041421853005886078,
0.27750000000000002,-0.043008528649806976,
0.28000000000000003,-0.044523082673549652,
0.28249999999999997,-0.044402878731489182,
0.28499999999999998,-0.043729744851589203,
0.28749999999999998,-0.042671959847211838,
0.28999999999999998,-0.039979420602321625,
0.29249999999999998,-0.038633149117231369,
0.29499999999999998,-0.037431120872497559,
0.29749999999999999,-0.036397378891706467,
0.29999999999999999,-0.035531919449567795,
0.30249999999999999,-0.034209690988063812,
0.30499999999999999,-0.033656757324934006,
0.3075,-0.033127866685390472,
0.31,-0.03214220330119133,
0.3125,-0.031757555902004242,
0.315,-0.031469069421291351,
0.3175,-0.031372904777526855,
0.32000000000000001,-0.031733512878417969,
0.32250000000000001,-0.032190285623073578,
0.32500000000000001,-0.032743215560913086,
0.32750000000000001,-0.03334423154592514,
0.33000000000000002,-0.034329891204833984,
0.33250000000000002,-0.034570299088954926,
0.33500000000000002,-0.034570299088954926,
0.33750000000000002,-0.034329891204833984,
0.34000000000000002,-0.033151905983686447,
0.34250000000000003,-0.032286446541547775,
0.34499999999999997,-0.031276743859052658,
0.34749999999999998,-0.030170878395438194,
0.34999999999999998,-0.0276947021484375,
0.35249999999999998,-0.026300352066755295,
0.35499999999999998,-0.024809837341308594,
0.35749999999999998,-0.023223161697387695,
0.35999999999999999,-0.019857486709952354,
0.36249999999999999,-0.018246769905090332,
0.36499999999999999,-0.016780298203229904,
0.36749999999999999,-0.015626352280378342,
0.37,-0.014712810516357422,
0.3725,-0.015097459778189659,
0.375,-0.016059082001447678,
0.3775,-0.017525553703308105,
0.38,-0.021299919113516808,
0.38250000000000001,-0.023102959617972374,
0.38500000000000001,-0.024473270401358604,
0.38750000000000001,-0.025170445442199707,
0.39000000000000001,-0.023583769798278809,
0.39250000000000002,-0.021035473793745041,
0.39500000000000002,-0.017285149544477463,
0.39750000000000002,-0.01245300006121397,
0.40000000000000002,-0.00036060810089111328,
0.40250000000000002,0.0062986216507852077,
0.40500000000000003,0.012861689552664757,
0.40749999999999997,0.018943946808576584,
0.40999999999999998,0.02815147303044796,
0.41249999999999998,0.030627649277448654,
0.41499999999999998,0.031396947801113129,
0.41749999999999998,0.030339162796735764,
0.41999999999999998,0.022958716377615929,
0.42249999999999999,0.016996663063764572,
0.42499999999999999,0.0099527835845947266,
0.42749999999999999,0.0021876893006265163,
0.42999999999999999,-0.013679067604243755,
0.4325,-0.021011432632803917,
0.435,-0.02752641960978508,
0.4375,-0.032983623445034027,
0.44,-0.040556393563747406,
0.4425,-0.042792163789272308,
0.44500000000000001,-0.044210553169250488,
0.44750000000000001,-0.044979851692914963,
0.45000000000000001,-0.045484703034162521,
0.45250000000000001,-0.045460663735866547,
0.45500000000000002,-0.045364499092102051,
0.45750000000000002,-0.045124094933271408,
0.46000000000000002,-0.043753784149885178,
0.46250000000000002,-0.042335391044616699,
0.46500000000000002,-0.040315985679626465,
0.46750000000000003,-0.037743650376796722,
0.46999999999999997,-0.03214220330119133,
0.47249999999999998,-0.030122797936201096,
0.47499999999999998,-0.029617946594953537,
0.47749999999999998,-0.031493108719587326,
0.47999999999999998,-0.045532785356044769,
0.48249999999999998,-0.058731041848659515,
0.48499999999999999,-0.076064273715019226,
0.48749999999999999,-0.096979543566703796,
0.48999999999999999,-0.14400283992290497,
0.49249999999999999,-0.16595184803009033,
0.495,-0.18330912292003632,
0.4975,-0.19304554164409637,
0.5,-0.17777979373931885,
0.50249999999999995,-0.14775316417217255,
0.505,-0.10056158155202866,
0.50749999999999995,-0.03584444522857666,
0.51000000000000001,0.14123818278312683,
0.51249999999999996,0.2476656436920166,
0.51500000000000001,0.35976669192314148,
0.51749999999999996,0.47143501043319702,
0.52000000000000002,0.66633164882659912,
0.52249999999999996,0.73604923486709595,
0.52500000000000002,0.77963471412658691,
0.52749999999999997,0.79321765899658203,
0.53000000000000003,0.72573584318161011,
0.53249999999999997,0.64827722311019897,
0.53500000000000003,0.54788392782211304,
0.53749999999999998,0.43147963285446167,
0.54000000000000004,0.18292447924613953,
0.54249999999999998,0.06678462028503418,
0.54500000000000004,-0.034810703247785568,
0.54749999999999999,-0.11722167581319809,
0.55000000000000004,-0.21622061729431152,
0.55249999999999999,-0.2339625358581543,
0.55500000000000005,-0.23420295119285583,
0.5575,-0.22105276584625244,
0.56000000000000005,-0.17273128032684326,
0.5625,-0.14570972323417664,
0.56499999999999995,-0.12094795703887939,
0.5675,-0.10020097345113754,
0.56999999999999995,-0.073203444480895996,
0.57250000000000001,-0.066135525703430176,
0.57499999999999996,-0.062096714973449707,
0.57750000000000001,-0.059933066368103027,
0.57999999999999996,-0.057288609445095062,
0.58250000000000002,-0.055509608238935471,
0.58499999999999996,-0.053033433854579926,
0.58750000000000002,-0.049908161163330078,
0.58999999999999997,-0.042383473366498947,
0.59250000000000003,-0.038512945175170898,
0.59499999999999997,-0.034834742546081543,
0.59750000000000003,-0.031517148017883301,
0.59999999999999998,-0.026035904884338379,
0.60250000000000004,-0.023824175819754601,
0.60499999999999998,-0.021876892074942589,
0.60750000000000004,-0.020097892731428146,
0.60999999999999999,-0.016732215881347656,
0.61250000000000004,-0.014977256767451763,
0.61499999999999999,-0.013102094642817974,
0.61750000000000005,-0.011034607887268066,
0.62,-0.0062265000306069851,
0.62250000000000005,-0.0034858784638345242,
0.625,-0.00057697296142578125,
0.62749999999999995,0.0024280946236103773,
0.63,0.0082699460908770561,
0.63249999999999995,0.010866324417293072,
0.63500000000000001,0.013126134872436523,
0.63749999999999996,0.014953216537833214,
0.64000000000000001,0.017357271164655685,
0.64249999999999996,0.018054446205496788,
0.64500000000000002,0.018559297546744347,
0.64749999999999996,0.019064148887991905,
0.65000000000000002,0.020578702911734581,
0.65249999999999997,0.02182881161570549,
0.65500000000000003,0.023511648178100586,
0.65749999999999997,0.025651257485151291,
0.66000000000000003,0.031084418296813965,
0.66249999999999998,0.034281812608242035,
0.66500000000000004,0.037719607353210449,
0.66749999999999998,0.041325688362121582,
0.67000000000000004,0.049066744744777679,
0.67249999999999999,0.053201716393232346,
0.67500000000000004,0.05750497430562973,
0.67749999999999999,0.061928432434797287,
0.68000000000000005,0.07106383889913559,
0.6825,0.075607500970363617,
0.68500000000000005,0.080030962824821472,
0.6875,0.084286138415336609,
0.68999999999999995,0.092315673828125,
0.6925,0.096234284341335297,
0.69499999999999995,0.10024905204772949,
0.69750000000000001,0.10455231368541718,
0.69999999999999996,0.11443297564983368,
0.70250000000000001,0.12022674083709717,
0.70499999999999996,0.12652537226676941,
0.70750000000000002,0.13323268294334412,
0.70999999999999996,0.14710406959056854,
0.71250000000000002,0.15378734469413757,
0.71499999999999997,0.16003787517547607,
0.71750000000000003,0.16568741202354431,
0.71999999999999997,0.17503917217254639,
0.72250000000000003,0.17886161804199219,
0.72499999999999998,0.18225133419036865,
0.72750000000000004,0.18542468547821045,
0.72999999999999998,0.1916271448135376,
0.73250000000000004,0.19477646052837372,
0.73499999999999999,0.19787769019603729,
0.73750000000000004,0.20081064105033875,
0.73999999999999999,0.205234095454216,
0.74250000000000005,0.2061716765165329,
0.745,0.20590722560882568,
0.74750000000000005,0.20422439277172089,
0.75,0.1960986852645874,
0.75249999999999995,0.18960773944854736,
0.755,0.18160223960876465,
0.75749999999999995,0.17220239341259003,
0.76000000000000001,0.15018126368522644,
0.76249999999999996,0.13801674544811249,
0.76500000000000001,0.1254194974899292,
0.76749999999999996,0.11258184909820557,
0.77000000000000002,0.087074838578701019,
0.77249999999999996,0.074693962931632996,
0.77500000000000002,0.062721773982048035,
0.77749999999999997,0.051182311028242111,
0.78000000000000003,0.029545824974775314,
0.78249999999999997,0.01937667652964592,
0.78500000000000003,0.0096402568742632866,
0.78749999999999998,0.00024040541029535234,
0.79000000000000004,-0.017477473244071007,
0.79249999999999998,-0.025771459564566612,
0.79500000000000004,-0.033584635704755783,
0.79749999999999999,-0.040892958641052246,
0.80000000000000004,-0.053466163575649261,
0.80249999999999999,-0.05858679860830307,
0.80500000000000005,-0.062890052795410156,
0.8075,-0.066351890563964844,
0.81000000000000005,-0.07106383889913559,
0.8125,-0.072530314326286316,
0.81499999999999995,-0.073564052581787109,
0.8175,-0.074309311807155609,
0.81999999999999995,-0.075439214706420898,
0.82250000000000001,-0.07596810907125473,
0.82499999999999996,-0.076521039009094238,
0.82750000000000001,-0.077073976397514343,
0.82999999999999996,-0.078179836273193359,
0.83250000000000002,-0.078684687614440918,
0.83499999999999996,-0.079117417335510254,
0.83750000000000002,-0.07950206845998764,
0.83999999999999997,-0.080199241638183594,
0.84250000000000003,-0.08058389276266098,
0.84499999999999997,-0.081064701080322266,
0.84750000000000003,-0.081617638468742371,
0.84999999999999998,-0.083011984825134277,
0.85250000000000004,-0.08378128707408905,
0.85499999999999998,-0.0845746248960495,
0.85750000000000004,-0.085319876670837402,
0.85999999999999999,-0.085993014276027679,
0.86250000000000004,-0.087002716958522797,
0.86499999999999999,-0.087291203439235687,
0.86750000000000005,-0.087411403656005859,
0.87,-0.087387368083000183,
0.87250000000000005,-0.086786352097988129,
0.875,-0.086233422160148621,
0.87749999999999995,-0.085512205958366394,
0.88,-0.083685122430324554,
0.88249999999999995,-0.082627341151237488,
0.88500000000000001,-0.081569552421569824,
0.88749999999999996,-0.080535814166069031,
0.89000000000000001,-0.079598233103752136,
0.89249999999999996,-0.078107714653015137,
0.89500000000000002,-0.077578827738761902,
0.89749999999999996,-0.077170133590698242,
0.90000000000000002,-0.076593160629272461,
0.90249999999999997,-0.076328717172145844,
0.90500000000000003,-0.076088309288024902,
0.90749999999999997,-0.075871944427490234,
0.91000000000000003,-0.075559422373771667,
0.91249999999999998,-0.075535379350185394,
0.91500000000000004,-0.075655579566955566,
0.91749999999999998,-0.075944066047668457,
0.92000000000000004,-0.076857611536979675,
0.92249999999999999,-0.077410541474819183,
0.92500000000000004,-0.077891349792480469,
0.92749999999999999,-0.078203879296779633,
0.93000000000000005,-0.078035593032836914,
0.9325,-0.077434584498405457,
0.93500000000000005,-0.076472960412502289,
0.9375,-0.07522284984588623,
0.93999999999999995,-0.072241827845573425,
0.9425,-0.070751309394836426,
0.94499999999999995,-0.069453120231628418,
0.94750000000000001,-0.068443417549133301,
0.94999999999999996,-0.067553922533988953,
0.95250000000000001,-0.067650079727172852,
0.95499999999999996,-0.067986652255058289,
0.95750000000000002,-0.068443417549133301,
0.95999999999999996,-0.069020390510559082,
0.96250000000000002,-0.06885211169719696,
0.96499999999999997,-0.068227052688598633,
0.96750000000000003,-0.067145228385925293,
0.96999999999999997,-0.063803598284721375,
0.97250000000000003,-0.061856310814619064,
0.97499999999999998,-0.059957109391689301,
0.97750000000000004,-0.058322351425886154,
0.97999999999999998,-0.056567393243312836,
0.98250000000000004,-0.056567393243312836,
0.98499999999999999,-0.057144366204738617,
0.98750000000000004,-0.058178108185529709,
0.98999999999999999,-0.060846608132123947,
0.99250000000000005,-0.062072675675153732,
0.995,-0.062962174415588379,
0.99750000000000005,-0.063370868563652039,
1,-0.062721773982048035,81.2379150390625
1.0024999999999999,-0.061736106872558594,
1.0049999999999999,-0.060510039329528809,
1.0075000000000001,-0.059235893189907074,
1.01,-0.057192444801330566,
1.0125,-0.056687593460083008,
1.0149999999999999,-0.056639514863491058,
1.0175000000000001,-0.057048201560974121,
1.02,-0.058971446007490158,
1.0225,-0.060245595872402191,
1.0249999999999999,-0.061543785035610199,
1.0275000000000001,-0.062745809555053711,
1.03,-0.064428649842739105,
1.0325,-0.064789257943630219,
1.0349999999999999,-0.064765214920043945,
1.0375000000000001,-0.064380571246147156,
1.04,-0.062817931175231934,
1.0425,-0.061736106872558594,
1.0449999999999999,-0.060606203973293304,
1.0475000000000001,-0.059476297348737717,
1.05,-0.05755305290222168,
1.0525,-0.056855879724025726,
1.0549999999999999,-0.056375067681074142,
1.0575000000000001,-0.056062541902065277,
1.0600000000000001,-0.055918298661708832,
1.0625,-0.055918298661708832,
1.0649999999999999,-0.055894255638122559,
1.0674999999999999,-0.055774055421352386,
1.0700000000000001,-0.054884552955627441,
1.0725,-0.054067175835371017,
1.075,-0.052961312234401703,
1.0774999999999999,-0.051566958427429199,
1.0800000000000001,-0.048105120658874512,
1.0825,-0.0461578369140625,
1.085,-0.044162474572658539,
1.0874999999999999,-0.042239230126142502,
1.0900000000000001,-0.039113961160182953,
1.0925,-0.038176380097866058,
1.095,-0.037815771996974945,
1.0974999999999999,-0.038152337074279785,
1.1000000000000001,-0.040941040962934494,
1.1025,-0.043224893510341644,
1.105,-0.045845311135053635,
1.1074999999999999,-0.048513811081647873,
1.1100000000000001,-0.052624743431806564,
1.1125,-0.053345959633588791,
1.115,-0.05276898667216301,
1.1174999999999999,-0.050725542008876801,
1.1200000000000001,-0.042263269424438477,
1.1225000000000001,-0.036205053329467773,
1.125,-0.029353499412536621,
1.1274999999999999,-0.022189419716596603,
1.1299999999999999,-0.0087026758119463921,
1.1325000000000001,-0.0032695136032998562,
1.135,0.00084141892148181796,
1.1375,0.0034137568436563015,
1.1399999999999999,0.0036060810089111328,
1.1425000000000001,0.0013222297420725226,
1.145,-0.0023559730034321547,
1.1475,-0.0072362027131021023,
1.1499999999999999,-0.019328594207763672,
1.1525000000000001,-0.025963783264160156,
1.155,-0.032550893723964691,
1.1575,-0.038825474679470062,
1.1599999999999999,-0.049379270523786545,
1.1625000000000001,-0.053345959633588791,
1.165,-0.056351028382778168,
1.1675,-0.058466594666242599,
1.1699999999999999,-0.060582160949707031,
1.1725000000000001,-0.061014890670776367,
1.175,-0.061303377151489258,
1.1775,-0.061591863632202148,
1.1799999999999999,-0.062361162155866623,
1.1825000000000001,-0.062601566314697266,
1.1850000000000001,-0.062505409121513367,
1.1875,-0.06183227151632309,
1.1899999999999999,-0.057937704026699066,
1.1924999999999999,-0.054788392037153244,
1.1950000000000001,-0.051182311028242111,
1.1975,-0.047696433961391449,
1.2,-0.044619243592023849,
1.2024999999999999,-0.046999257057905197,
1.2050000000000001,-0.053201716393232346,
1.2075,-0.063899755477905273,
1.21,-0.099239349365234375,
1.2124999999999999,-0.12267887592315674,
1.2150000000000001,-0.14813780784606934,
1.2175,-0.17345249652862549,
1.22,-0.21275877952575684,
1.2224999999999999,-0.22062003612518311,
1.2250000000000001,-0.21653315424919128,
1.2275,-0.19787769019603729,
1.23,-0.10974507033824921,
1.2324999999999999,-0.039330326020717621,
1.2350000000000001,0.04719158262014389,
1.2375,0.14698386192321777,
1.24,0.36813279986381531,
1.2424999999999999,0.47770959138870239,
1.2450000000000001,0.57757401466369629,
1.2475000000000001,0.66097062826156616,
1.25,0.75496912002563477,
1.2524999999999999,0.75766170024871826,
1.2549999999999999,0.72888517379760742,
1.2575000000000001,0.67020219564437866,
1.26,0.48032999038696289,
1.2625,0.36231499910354614,
1.2649999999999999,0.23944377899169922,
1.2675000000000001,0.11969785392284393,
1.27,-0.082723498344421387,
