Data Set 1:Time(s),Data Set 1:EKG(mV),Data Set 1:Heart Rate(bpm)
0,0.02490600012242794,90.395477294921875
0.0025000000000000001,0.024593472480773926,
0.0050000000000000001,0.023343365639448166,
0.0074999999999999997,0.020939311012625694,
0.01,0.017333230003714561,
0.012500000000000001,0.012789567932486534,
0.014999999999999999,-9.6162162662949413e-05,
0.017500000000000002,-0.00086545944213867188,
0.02,0.0017790000420063734,
0.022499999999999999,0.0085103511810302734,
0.025000000000000001,0.03447413444519043,
0.0275,0.052336256951093674,
0.029999999999999999,0.071664854884147644,
0.032500000000000001,0.090536676347255707,
0.035000000000000003,0.11948148906230927,
0.037499999999999999,0.12654940783977509,
0.040000000000000001,0.1276552677154541,
0.042500000000000003,0.12306352704763412,
0.044999999999999998,0.10166744887828827,
0.047500000000000001,0.088517270982265472,
0.050000000000000003,0.076448917388916016,
0.052499999999999998,0.067217350006103516,
0.055,0.061135094612836838,
0.057500000000000002,0.06423632800579071,
0.059999999999999998,0.070246458053588867,
0.0625,0.077650949358940125,
0.065000000000000002,0.090488597750663757,
0.067500000000000004,0.093734070658683777,
0.070000000000000007,0.09447932243347168,
0.072499999999999995,0.093325376510620117,
0.074999999999999997,0.090488597750663757,
0.077499999999999999,0.091858908534049988,
0.080000000000000002,0.096763178706169128,
0.082500000000000004,0.10565817356109619,
0.085000000000000006,0.13311247527599335,
0.087499999999999994,0.148546501994133,
0.089999999999999997,0.16217748820781708,
0.092499999999999999,0.17169754207134247,
0.095000000000000001,0.17160138487815857,
0.097500000000000003,0.16063889861106873,
0.10000000000000001,0.14325758814811707,
0.10249999999999999,0.12118836492300034,
0.105,0.072914958000183105,
0.1075,0.051927566528320312,
0.11,0.035868488252162933,
0.1125,0.025915702804923058,
0.115,0.02461751364171505,
0.11749999999999999,0.031300783157348633,
0.12,0.040700636804103851,
0.1225,0.050917863845825195,
0.125,0.067698165774345398,
0.1275,0.07248222827911377,
0.13,0.074742041528224945,
0.13250000000000001,0.074982449412345886,
0.13500000000000001,0.073155365884304047,
0.13750000000000001,0.072963044047355652,
0.14000000000000001,0.074020825326442719,
0.14249999999999999,0.076376795768737793,
0.14499999999999999,0.082627341151237488,
0.14749999999999999,0.084406338632106781,
0.14999999999999999,0.083516836166381836,
0.1525,0.078756809234619141,
0.155,0.054451823234558105,
0.1575,0.034834742546081543,
0.16,0.011299054138362408,
0.16250000000000001,-0.014424324035644531,
0.16500000000000001,-0.062265001237392426,
0.16750000000000001,-0.078107714653015137,
0.17000000000000001,-0.083949565887451172,
0.17249999999999999,-0.076328717172145844,
0.17499999999999999,-0.0087507572025060654,
0.17749999999999999,0.055341325700283051,
0.17999999999999999,0.14056503772735596,
0.1825,0.24583856761455536,
0.185,0.50384163856506348,
0.1875,0.64604145288467407,
0.19,0.78754407167434692,
0.1925,0.92000746726989746,
0.19500000000000001,1.1238952875137329,
0.19750000000000001,1.1804145574569702,
0.20000000000000001,1.1995989084243774,
0.20250000000000001,1.1793327331542969,
0.20499999999999999,1.1204575300216675,
0.20749999999999999,0.90507829189300537,
0.20999999999999999,0.76369583606719971,
0.21249999999999999,0.6124567985534668,
0.215,0.46131393313407898,
0.2175,0.19403120875358582,
0.22,0.090512633323669434,
0.2225,0.011467337608337402,
0.22500000000000001,-0.07454971969127655,
0.22750000000000001,-0.086858473718166351,
0.23000000000000001,-0.08411785215139389,
0.23250000000000001,-0.07072727382183075,
0.23499999999999999,-0.027478337287902832,
0.23749999999999999,-0.0032695136032998562,
0.23999999999999999,0.020410418510437012,
0.24249999999999999,0.04274408146739006,
0.245,0.082290768623352051,
0.2475,0.099167227745056152,
0.25,0.11383195966482162,
0.2525,0.12590031325817108,
0.255,0.14087757468223572,
0.25750000000000001,0.14335374534130096,
0.26000000000000001,0.14263252913951874,
0.26250000000000001,0.13919472694396973,
0.26500000000000001,0.12715041637420654,
0.26750000000000002,0.12029886245727539,
0.27000000000000002,0.11388003826141357,
0.27250000000000002,0.10847091674804688,
0.27500000000000002,0.1014510840177536,
0.27750000000000002,0.099720165133476257,
0.28000000000000003,0.098854705691337585,
0.28249999999999997,0.098614297807216644,
0.28499999999999998,0.098782584071159363,
0.28749999999999998,0.099816322326660156,
0.28999999999999998,0.10063370317220688,
0.29249999999999998,0.10157128423452377,
0.29499999999999998,0.10342240333557129,
0.29749999999999999,0.10385513305664062,
0.29999999999999999,0.10356664657592773,
0.30249999999999999,0.102292500436306,
0.30499999999999999,0.096114084124565125,
0.3075,0.091354057192802429,
0.31,0.085872814059257507,
0.3125,0.080199241638183594,
0.315,0.070703230798244476,
0.3175,0.067962609231472015,
0.32000000000000001,0.067121192812919617,
0.32250000000000001,0.068251095712184906,
0.32500000000000001,0.075871944427490234,
0.32750000000000001,0.081593595445156097,
0.33000000000000002,0.087916254997253418,
0.33250000000000002,0.094311043620109558,
0.33500000000000002,0.10561009496450424,
0.33750000000000002,0.10998547077178955,
0.34000000000000002,0.11339922994375229,
0.34250000000000003,0.11597156524658203,
0.34499999999999997,0.11787077039480209,
0.34749999999999998,0.12068351358175278,
0.34999999999999998,0.12207786738872528,
0.35249999999999998,0.1237366646528244,
0.35499999999999998,0.12830436229705811,
0.35749999999999998,0.1312853991985321,
0.35999999999999999,0.13474723696708679,
0.36249999999999999,0.13859371840953827,
0.36499999999999999,0.14717619121074677,
0.36749999999999999,0.15179197490215302,
0.37,0.15650391578674316,
0.3725,0.16131202876567841,
0.375,0.17112056910991669,
0.3775,0.17612099647521973,
0.38,0.18119356036186218,
0.38250000000000001,0.18629014492034912,
0.38500000000000001,0.19645929336547852,
0.38750000000000001,0.20138761401176453,
0.39000000000000001,0.20609955489635468,
0.39250000000000002,0.21047493815422058,
0.39500000000000002,0.21785537898540497,
0.39750000000000002,0.22066812217235565,
0.40000000000000002,0.22283177077770233,
0.40250000000000002,0.22434632480144501,
0.40500000000000003,0.22550027072429657,
0.40749999999999997,0.22523581981658936,
0.40999999999999998,0.22444248199462891,
0.41249999999999998,0.2231442928314209,
0.41499999999999998,0.21884104609489441,
0.41749999999999998,0.21557152271270752,
0.41999999999999998,0.21129231154918671,
0.42249999999999999,0.20581106841564178,
0.42499999999999999,0.19013664126396179,
0.42749999999999999,0.17951071262359619,
0.42999999999999999,0.16688942909240723,
0.4325,0.1522727906703949,
0.435,0.11779864877462387,
0.4375,0.098686419427394867,
0.44,0.079021260142326355,
0.4425,0.059380136430263519,
0.44500000000000001,0.022670229896903038,
0.44750000000000001,0.0065390272065997124,
0.45000000000000001,-0.0076689324341714382,
0.45250000000000001,-0.019977688789367676,
0.45500000000000002,-0.039666891098022461,
0.45750000000000002,-0.047936838120222092,
0.46000000000000002,-0.055894255638122559,
0.46250000000000002,-0.064116120338439941,
0.46500000000000002,-0.08274754136800766,
0.46750000000000003,-0.093469619750976562,
0.46999999999999997,-0.10491292178630829,
0.47249999999999998,-0.11671682447195053,
0.47499999999999998,-0.13914665579795837,
0.47749999999999998,-0.14866670966148376,
0.47999999999999998,-0.15640775859355927,
0.48249999999999998,-0.16217748820781708,
0.48499999999999999,-0.16785106062889099,
0.48749999999999999,-0.16828379034996033,
0.48999999999999999,-0.16773085296154022,
0.49249999999999999,-0.16667306423187256,
0.495,-0.16491810977458954,
0.4975,-0.16487002372741699,
0.5,-0.16559123992919922,
0.50249999999999995,-0.16703367233276367,
0.505,-0.17145714163780212,
0.50749999999999995,-0.17400543391704559,
0.51000000000000001,-0.17643353343009949,
0.51249999999999996,-0.1785731315612793,
0.51500000000000001,-0.18167436122894287,
0.51749999999999996,-0.18263599276542664,
0.52000000000000002,-0.18330912292003632,
0.52249999999999996,-0.1838860958814621,
0.52500000000000002,-0.1851842850446701,
0.52749999999999997,-0.18616995215415955,
0.53000000000000003,-0.18746814131736755,
0.53249999999999997,-0.18903076648712158,
0.53500000000000003,-0.19287726283073425,
0.53749999999999998,-0.19492070376873016,
0.54000000000000004,-0.19686798751354218,
0.54249999999999998,-0.1986229419708252,
0.54500000000000004,-0.20119528472423553,
0.54749999999999999,-0.20191650092601776,
0.55000000000000004,-0.20230114459991455,
0.55249999999999999,-0.20237326622009277,
0.55500000000000005,-0.20189246535301208,
0.5575,-0.20153185725212097,
0.56000000000000005,-0.20114719867706299,
0.5625,-0.20081064105033875,
0.56499999999999995,-0.20011346042156219,
0.5675,-0.19968073070049286,
0.56999999999999995,-0.19905567169189453,
0.57250000000000001,-0.19816617667675018,
0.57499999999999996,-0.19549767673015594,
0.57750000000000001,-0.1937667578458786,
0.57999999999999996,-0.19191563129425049,
0.58250000000000002,-0.19011259078979492,
0.58499999999999996,-0.18749217689037323,
0.58750000000000002,-0.18705944716930389,
0.58999999999999997,-0.18739601969718933,
0.59250000000000003,-0.18852591514587402,
0.59499999999999997,-0.19249260425567627,
0.59750000000000003,-0.19475242495536804,
0.59999999999999998,-0.19667565822601318,
0.60250000000000004,-0.19778153300285339,
0.60499999999999998,-0.19626697897911072,
0.60750000000000004,-0.19328594207763672,
0.60999999999999999,-0.18888652324676514,
0.61250000000000004,-0.18340528011322021,
0.61499999999999999,-0.17114460468292236,
0.61750000000000005,-0.16549508273601532,
0.62,-0.16085526347160339,
0.62250000000000005,-0.1574895828962326,
0.625,-0.15458068251609802,
0.62749999999999995,-0.15443643927574158,
0.63,-0.15443643927574158,
0.63249999999999995,-0.15395562350749969,
0.63500000000000001,-0.14950811862945557,
0.63749999999999996,-0.14506062865257263,
0.64000000000000001,-0.13929089903831482,
0.64249999999999996,-0.13270378112792969,
0.64500000000000002,-0.11998634040355682,
0.64749999999999996,-0.11546671390533447,
0.65000000000000002,-0.11306266486644745,
0.65249999999999997,-0.11315882205963135,
0.65500000000000003,-0.12051522731781006,
0.65749999999999997,-0.12686192989349365,
0.66000000000000003,-0.1339058130979538,
0.66249999999999998,-0.1407092809677124,
0.66500000000000004,-0.14998893439769745,
0.66749999999999998,-0.15119096636772156,
0.67000000000000004,-0.14972448348999023,
0.67249999999999999,-0.14570972323417664,
0.67500000000000004,-0.13191044330596924,
0.67749999999999999,-0.12359242141246796,
0.68000000000000005,-0.11537055671215057,
0.6825,-0.10796606540679932,
0.68500000000000005,-0.097604595124721527,
0.6875,-0.094936095178127289,
0.68999999999999995,-0.093782149255275726,
0.6925,-0.093637906014919281,
0.69499999999999995,-0.094046592712402344,
0.69750000000000001,-0.093373462557792664,
0.69999999999999996,-0.091498300433158875,
0.70250000000000001,-0.088204741477966309,
0.70499999999999996,-0.077867314219474792,
0.70750000000000002,-0.07168889045715332,
0.70999999999999996,-0.06565471738576889,
0.71250000000000002,-0.060510039329528809,
0.71499999999999997,-0.055149000138044357,
0.71750000000000003,-0.055509608238935471,
0.71999999999999997,-0.057793460786342621,
0.72250000000000003,-0.061519742012023926,
0.72499999999999998,-0.070222422480583191,
0.72750000000000004,-0.073419809341430664,
0.72999999999999998,-0.074814163148403168,
0.73250000000000004,-0.073828503489494324,
0.73499999999999999,-0.064572893083095551,
0.73750000000000004,-0.057096283882856369,
0.73999999999999999,-0.048754215240478516,
0.74250000000000005,-0.040580432862043381,
0.745,-0.028704404830932617,
0.74750000000000005,-0.026372473686933517,
0.75,-0.026829242706298828,
0.75249999999999995,-0.029738148674368858,
0.755,-0.040003459900617599,
0.75749999999999995,-0.045292377471923828,
0.76000000000000001,-0.049210987985134125,
0.76249999999999996,-0.050941906869411469,
0.76500000000000001,-0.046278040856122971,
0.76749999999999996,-0.040219824761152267,
0.77000000000000002,-0.032574933022260666,
0.77249999999999996,-0.024425189942121506,
0.77500000000000002,-0.011010567657649517,
0.77749999999999997,-0.0075246891938149929,
0.78000000000000003,-0.0067553920671343803,
0.78249999999999997,-0.0086305541917681694,
0.78500000000000003,-0.017669796943664551,
0.78749999999999998,-0.022838514298200607,
0.79000000000000004,-0.026973485946655273,
0.79249999999999998,-0.029137134552001953,
0.79500000000000004,-0.025603175163269043,
0.79749999999999999,-0.019953649491071701,
0.80000000000000004,-0.012404918670654297,
0.80249999999999999,-0.0038224458694458008,
0.80500000000000005,0.01247704029083252,
0.8075,0.018463134765625,
0.81000000000000005,0.022309621796011925,
0.8125,0.023872256278991699,
0.81499999999999995,0.020963352173566818,
0.8175,0.017501514405012131,
0.81999999999999995,0.013486742973327637,
0.82250000000000001,0.0094960136339068413,
0.82499999999999996,0.0030050675850361586,
0.82750000000000001,0.00079333782196044922,
0.82999999999999996,-0.00079333782196044922,
0.83250000000000002,-0.0019713244400918484,
0.83499999999999996,-0.0042070946656167507,
0.83750000000000002,-0.0058178110048174858,
0.83999999999999997,-0.0080295410007238388,
0.84250000000000003,-0.010962486267089844,
0.84499999999999997,-0.01891990564763546,
0.84750000000000003,-0.023776095360517502,
0.84999999999999998,-0.029040973633527756,
0.85250000000000004,-0.034498177468776703,
0.85499999999999998,-0.045196216553449631,
0.85750000000000004,-0.050052404403686523,
0.85999999999999999,-0.054331623017787933,
0.86250000000000004,-0.057913661003112793,
0.86499999999999999,-0.062529444694519043,
0.86750000000000005,-0.063394904136657715,
0.87,-0.06320258229970932,
0.87250000000000005,-0.061952471733093262,
0.875,-0.056711636483669281,
0.87749999999999995,-0.053177677094936371,
0.88,-0.049571596086025238,
0.88249999999999995,-0.046566527336835861,
0.88500000000000001,-0.045604906976222992,
0.88749999999999996,-0.049451392143964767,
0.89000000000000001,-0.057264566421508789,
0.89249999999999996,-0.069621406495571136,
0.89500000000000002,-0.10832667350769043,
0.89749999999999996,-0.13356924057006836,
0.90000000000000002,-0.16102354228496552,
0.90249999999999997,-0.18871824443340302,
0.90500000000000003,-0.23432314395904541,
0.90749999999999997,-0.24624726176261902,
0.91000000000000003,-0.24677614867687225,
0.91249999999999998,-0.23300091922283173,
0.91500000000000004,-0.15369117259979248,
0.91749999999999998,-0.085848771035671234,
0.92000000000000004,0.00038464865065179765,
0.92249999999999999,0.10301371663808823,
0.92500000000000004,0.34195265173912048,
0.92749999999999999,0.46708366274833679,
0.93000000000000005,0.58675748109817505,
0.9325,0.69335323572158813,
0.93500000000000005,0.8386542797088623,
0.9375,0.86589217185974121,
0.93999999999999995,0.85836750268936157,
0.9425,0.81579172611236572,
0.94499999999999995,0.63765132427215576,
0.94750000000000001,0.51410698890686035,
0.94999999999999996,0.37847024202346802,
0.95250000000000001,0.23987650871276855,
0.95499999999999996,-0.011755824089050293,
0.95750000000000002,-0.11118750274181366,
0.95999999999999996,-0.18744409084320068,
0.96250000000000002,-0.2392755001783371,
0.96499999999999997,-0.27605754137039185,
0.96750000000000003,-0.26831647753715515,
0.96999999999999997,-0.24958889186382294,
0.97250000000000003,-0.22485117614269257,
0.97499999999999998,-0.17412564158439636,
0.97750000000000004,-0.15388350188732147,
0.97999999999999998,-0.13890624046325684,
0.98250000000000004,-0.129241943359375,
0.98499999999999999,-0.12227018922567368,
0.98750000000000004,-0.12231826782226562,
0.98999999999999999,-0.12291928380727768,
0.99250000000000005,-0.12306352704763412,
0.995,-0.11974593251943588,
0.99750000000000005,-0.11613985151052475,
1,-0.11159618943929672,88.23529052734375
1.0024999999999999,-0.10659575462341309,
1.0049999999999999,-0.096979543566703796,
1.0075000000000001,-0.0930609330534935,
1.01,-0.089935660362243652,
1.0125,-0.087603732943534851,
1.0149999999999999,-0.084839068353176117,
1.0175000000000001,-0.084045730531215668,
1.02,-0.083396635949611664,
1.0225,-0.082795619964599609,
1.0249999999999999,-0.081305108964443207,
1.0275000000000001,-0.080391570925712585,
1.03,-0.079381868243217468,
1.0325,-0.078324079513549805,
1.0349999999999999,-0.076184473931789398,
1.0375000000000001,-0.075126692652702332,
1.04,-0.074092946946620941,
1.0425,-0.073059201240539551,
1.0449999999999999,-0.070919595658779144,
1.0475000000000001,-0.069765649735927582,
1.05,-0.068539582192897797,
1.0525,-0.067241393029689789,
1.0549999999999999,-0.064500771462917328,
1.0575000000000001,-0.063130460679531097,
1.0600000000000001,-0.061760149896144867,
1.0625,-0.060461960732936859,
1.0649999999999999,-0.058081947267055511,
1.0674999999999999,-0.057000122964382172,
1.0700000000000001,-0.055918298661708832,
1.0725,-0.054788392037153244,
1.075,-0.052047770470380783,
1.0774999999999999,-0.050268769264221191,
1.0800000000000001,-0.048105120658874512,
1.0825,-0.045508742332458496,
1.085,-0.038969717919826508,
1.0874999999999999,-0.035027068108320236,
1.0900000000000001,-0.030723810195922852,
1.0925,-0.026108026504516602,
1.095,-0.016227364540100098,
1.0974999999999999,-0.011106729507446289,
1.1000000000000001,-0.0059380135498940945,
1.1025,-0.0007692973013035953,
1.105,0.0095681352540850639,
1.1074999999999999,0.014760891906917095,
1.1100000000000001,0.019977688789367676,
1.1125,0.02524256706237793,
1.115,0.036084853112697601,
1.1174999999999999,0.041638217866420746,
1.1200000000000001,0.047215621918439865,
1.1225000000000001,0.05276898667216301,
1.125,0.063418947160243988,
1.1274999999999999,0.068323217332363129,
1.1299999999999999,0.072794757783412933,
1.1325000000000001,0.076785489916801453,
1.135,0.083204314112663269,
1.1375,0.085656449198722839,
1.1399999999999999,0.08769989013671875,
1.1425000000000001,0.089358687400817871,
1.145,0.091738700866699219,
1.1475,0.092483960092067719,
1.1499999999999999,0.092796489596366882,
1.1525000000000001,0.092604160308837891,
1.155,0.089911624789237976,
1.1575,0.087002716958522797,
1.1599999999999999,0.082819662988185883,
1.1625000000000001,0.077194176614284515,
1.165,0.061543785035610199,
1.1675,0.051615040749311447,
1.1699999999999999,0.040508311241865158,
1.1725000000000001,0.028439959511160851,
1.175,0.002476175781339407,
1.1775,-0.010866324417293072,
1.1799999999999999,-0.02416074275970459,
1.1825000000000001,-0.037238799035549164,
1.1850000000000001,-0.062385201454162598,
1.1875,-0.074381433427333832,
1.1899999999999999,-0.08594493567943573,
1.1924999999999999,-0.097123786807060242,
1.1950000000000001,-0.11820733547210693,
1.1975,-0.12801587581634521,
1.2,-0.13727149367332458,
1.2024999999999999,-0.14585396647453308,
1.2050000000000001,-0.16073505580425262,
1.2075,-0.16698560118675232,
1.21,-0.17237067222595215,
1.2124999999999999,-0.17701050639152527,
1.2150000000000001,-0.18422266840934753,
1.2175,-0.18703541159629822,
1.22,-0.18943946063518524,
1.2224999999999999,-0.19155502319335938,
1.2250000000000001,-0.1952572762966156,
1.2275,-0.19696414470672607,
1.23,-0.19864699244499207,
1.2324999999999999,-0.20032982528209686,
1.2350000000000001,-0.20371954143047333,
1.2375,-0.20547449588775635,
1.24,-0.20720541477203369,
1.2424999999999999,-0.20888826251029968,
1.2450000000000001,-0.21177312731742859,
1.2475000000000001,-0.21280686557292938,
1.25,-0.21340787410736084,
1.2524999999999999,-0.21352808177471161,
1.2549999999999999,-0.21210968494415283,
1.2575000000000001,-0.21066725254058838,
1.26,-0.20888826251029968,
1.2625,-0.20696501433849335,
1.2649999999999999,-0.20347914099693298,
1.2675000000000001,-0.20230114459991455,
1.27,-0.20172417163848877,
1.2725,-0.20177225768566132,
1.2749999999999999,-0.2036474198102951,
1.2775000000000001,-0.20521005988121033,
1.28,-0.20698904991149902,
1.2825,-0.20876805484294891,
1.2849999999999999,-0.21191737055778503,
1.2875000000000001,-0.21309535205364227,
1.29,-0.21398484706878662,
1.2925,-0.21468202769756317,
1.2949999999999999,-0.21564364433288574,
1.2975000000000001,-0.21602830290794373,
1.3,-0.21641294658184052,
1.3025,-0.2167975902557373,
1.3049999999999999,-0.21732649207115173,
1.3075000000000001,-0.21735052764415741,
1.3100000000000001,-0.21715819835662842,
1.3125,-0.21667739748954773,
1.3149999999999999,-0.21494647860527039,
1.3174999999999999,-0.21379253268241882,
1.3200000000000001,-0.21251837909221649,
1.3225,-0.21124422550201416,
1.325,-0.20891229808330536,
1.3274999999999999,-0.20795068144798279,
1.3300000000000001,-0.20715734362602234,
1.3325,-0.20646016299724579,
1.335,-0.20521005988121033,
1.3374999999999999,-0.204585000872612,
1.3400000000000001,-0.20386378467082977,
1.3425,-0.20307044684886932,
1.345,-0.20133952796459198,
1.3474999999999999,-0.20045003294944763,
1.3500000000000001,-0.19960860908031464,
1.3525,-0.19886335730552673,
1.355,-0.1976853609085083,
1.3574999999999999,-0.19722859561443329,
1.3600000000000001,-0.19681990146636963,
1.3625,-0.19641122221946716,
1.365,-0.19547364115715027,
1.3674999999999999,-0.19487261772155762,
1.3700000000000001,-0.19419948756694794,
1.3725000000000001,-0.19345423579216003,
1.375,-0.19196371734142303,
1.3774999999999999,-0.19131462275981903,
1.3799999999999999,-0.1907857358455658,
1.3825000000000001,-0.19047319889068604,
1.385,-0.19040107727050781,
1.3875,-0.19061744213104248,
1.3899999999999999,-0.19092997908592224,
1.3925000000000001,-0.19126653671264648,
1.395,-0.1916271448135376,
1.3975,-0.19148290157318115,
1.3999999999999999,-0.19105017185211182,
1.4025000000000001,-0.19030492007732391,
1.405,-0.18799702823162079,
1.4075,-0.18660268187522888,
1.4099999999999999,-0.18516024947166443,
1.4125000000000001,-0.18383800983428955,
1.415,-0.18193881213665009,
1.4175,-0.1815541684627533,
1.4199999999999999,-0.18157820403575897,
1.4225000000000001,-0.18201093375682831,
1.425,-0.18386206030845642,
1.4275,-0.18506407737731934,
1.4299999999999999,-0.18624207377433777,
1.4325000000000001,-0.18732389807701111,
1.4350000000000001,-0.18862208724021912,
1.4375,-0.18864612281322479,
1.4399999999999999,-0.18823742866516113,
1.4424999999999999,-0.18734793365001678,
1.4450000000000001,-0.18427073955535889,
1.4475,-0.1822032630443573,
1.45,-0.17989537119865417,
1.4524999999999999,-0.1774432361125946,
1.4550000000000001,-0.17251491546630859,
1.4575,-0.17020702362060547,
1.46,-0.16818761825561523,
1.4624999999999999,-0.16648074984550476,
1.4650000000000001,-0.16436517238616943,
1.4675,-0.16402861475944519,
1.47,-0.16424497961997986,
1.4724999999999999,-0.16494214534759521,
1.4750000000000001,-0.16758660972118378,
1.4775,-0.16929349303245544,
1.48,-0.17102441191673279,
1.4824999999999999,-0.17258703708648682,
1.4850000000000001,-0.17431795597076416,
1.4875,-0.17407755553722382,
1.49,-0.17282745242118835,
1.4924999999999999,-0.17049551010131836,
1.4950000000000001,-0.16249001026153564,
1.4975000000000001,-0.15698473155498505,
1.5,-0.15080630779266357,
1.5024999999999999,-0.14421920478343964,
1.5049999999999999,-0.13150176405906677,
1.5075000000000001,-0.1261647641658783,
1.51,-0.12200574576854706,
1.5125,-0.1193612813949585,
1.5149999999999999,-0.11909683793783188,
1.5175000000000001,-0.1215008944272995,
1.52,-0.12537142634391785,
1.5225,-0.13046801090240479,
1.5249999999999999,-0.14277677237987518,
1.5275000000000001,-0.14926771819591522,
1.53,-0.15551826357841492,
1.5325,-0.16126394271850586,
1.5349999999999999,-0.17056763172149658,
1.5375000000000001,-0.17407755553722382,
1.54,-0.1768902987241745,
1.5425,-0.1791260689496994,
1.5449999999999999,-0.18249174952507019,
1.5475000000000001,-0.18383800983428955,
1.55,-0.18504004180431366,
1.5525,-0.18607378005981445,
1.5549999999999999,-0.18710753321647644,
1.5575000000000001,-0.18679499626159668,
1.5600000000000001,-0.18566510081291199,
1.5625,-0.18366973102092743,
1.5649999999999999,-0.17734706401824951,
1.5674999999999999,-0.1736207902431488,
1.5700000000000001,-0.17030319571495056,
1.5725,-0.16809146106243134,
1.575,-0.17061571776866913,
1.5774999999999999,-0.1769864559173584,
1.5800000000000001,-0.18756429851055145,
1.5825,-0.20251750946044922,
1.585,-0.24389128386974335,
1.5874999999999999,-0.26812416315078735,
1.5900000000000001,-0.29238104820251465,
1.5925,-0.31430602073669434,
1.595,-0.34010154008865356,
1.5974999999999999,-0.33822637796401978,
1.6000000000000001,-0.32296061515808105,
1.6025,-0.2921406626701355,
1.605,-0.17915010452270508,
1.6074999999999999,-0.097219944000244141,
1.6100000000000001,-0.00057697296142578125,
1.6125,0.10741313546895981,
1.615,0.33762535452842712,
1.6174999999999999,0.44746658205986023,
1.6200000000000001,0.54471057653427124,
1.6225000000000001,0.62269806861877441,
1.625,0.69909894466400146,
1.6274999999999999,0.69082897901535034,
1.6299999999999999,0.65070533752441406,
1.6325000000000001,0.5811079740524292,
1.635,0.37390252947807312,
1.6375,0.25059860944747925,
1.6399999999999999,0.12505888938903809,
1.6425000000000001,0.0052408380433917046,
1.645,-0.19117037951946259,
1.6475,-0.25927722454071045,
1.6499999999999999,-0.30524274706840515,
1.6525000000000001,-0.33012470602989197,
1.655,-0.32868227362632751,
1.6575,-0.31074804067611694,
1.6599999999999999,-0.28726041316986084,
1.6625000000000001,-0.2622101902961731,
1.665,-0.21862468123435974,
1.6675,-0.20311853289604187,
1.6699999999999999,-0.1921800822019577,
1.6725000000000001,-0.18516024947166443,
1.675,-0.17842888832092285,
1.6775,-0.17643353343009949,
1.6799999999999999,-0.17414967715740204,
1.6825000000000001,-0.17104844748973846,
1.6850000000000001,-0.16196112334728241,
1.6875,-0.15643179416656494,
1.6899999999999999,-0.15071015059947968,
1.6924999999999999,-0.14518082141876221,
1.6950000000000001,-0.13582906126976013,
1.6975,-0.132222980260849,
1.7,-0.12929002940654755,
1.7024999999999999,-0.12688598036766052,
1.7050000000000001,-0.12291928380727768,
1.7075,-0.12104412168264389,
1.71,-0.11907279491424561,
1.7124999999999999,-0.11695723235607147,
1.7150000000000001,-0.11219720542430878,
1.7175,-0.10960082709789276,
1.72,-0.10693232715129852,
1.7224999999999999,-0.10419170558452606,
1.7250000000000001,-0.098662376403808594,
1.7275,-0.095921754837036133,
1.73,-0.093205176293849945,
1.7324999999999999,-0.090536676347255707,
1.7350000000000001,-0.085367962718009949,
1.7375,-0.082867741584777832,
1.74,-0.080487728118896484,
1.7424999999999999,-0.078155800700187683,
1.7450000000000001,-0.073732338845729828,
1.7475000000000001,-0.071568690240383148,
1.75,-0.069429084658622742,
1.7524999999999999,-0.067217350006103516,
1.7549999999999999,-0.062553487718105316,
1.7575000000000001,-0.06000518798828125,
1.76,-0.057264566421508789,
1.7625,-0.05430757999420166,
1.7649999999999999,-0.047720473259687424,
1.7675000000000001,-0.044042270630598068,
1.77,-0.040099620819091797,
1.7725,-0.035892527550458908,
1.7749999999999999,-0.026684999465942383,
1.7775000000000001,-0.021732648834586143,
1.78,-0.016587972640991211,
1.7825,-0.011250972747802734,
1.7849999999999999,-0.00016828379011712968,
1.7875000000000001,0.0055293245241045952,
1.79,0.011299054138362408,
1.7925,0.017116865143179893,
1.7949999999999999,0.028968852013349533,
1.7975000000000001,0.034954946488142014,
1.8,0.040989123284816742,
1.8025,0.047023296356201172,
1.8049999999999999,0.059067606925964355,
1.8075000000000001,0.064981579780578613,
1.8100000000000001,0.070775352418422699,
1.8125,0.076472960412502289,
1.8149999999999999,0.087411403656005859,
1.8174999999999999,0.092628203332424164,
1.8200000000000001,0.097724795341491699,
1.8225,0.10260502994060516,
1.825,0.11176447570323944,
1.8274999999999999,0.11587540805339813,
1.8300000000000001,0.11955361068248749,
1.8325,0.12270291894674301,
1.835,0.12686192989349365,
1.8374999999999999,0.12763123214244843,
1.8400000000000001,0.12736678123474121,
1.8425,0.12599647045135498,
1.845,0.11967381089925766,
1.8474999999999999,0.1146974191069603,
1.8500000000000001,0.10851900279521942,
1.8525,0.10121067613363266,
1.855,0.083420678973197937,
1.8574999999999999,0.073155365884304047,
1.8600000000000001,0.062144797295331955,
1.8625,0.050533216446638107,
1.865,0.026108026504516602,
1.8674999999999999,0.013606945984065533,
1.8700000000000001,0.0011779865017160773,
1.8725000000000001,-0.01105864904820919,
1.875,-0.03430585190653801,
1.8774999999999999,-0.04507601261138916,
1.8799999999999999,-0.055149000138044357,
1.8825000000000001,-0.064476728439331055,
1.885,-0.080800257623195648,
1.8875,-0.087820097804069519,
1.8899999999999999,-0.094166800379753113,
1.8925000000000001,-0.099840365350246429,
1.895,-0.10943254083395004,
1.8975,-0.11344730854034424,
1.8999999999999999,-0.11700531095266342,
1.9025000000000001,-0.12015461921691895,
1.905,-0.1253233402967453,
1.9075,-0.12741486728191376,
1.9099999999999999,-0.12916982173919678,
1.9125000000000001,-0.1306363046169281,
1.915,-0.13279995322227478,
1.9175,-0.13354520499706268,
1.9199999999999999,-0.13405005633831024,
1.9225000000000001,-0.13441066443920135,
1.925,-0.13469915091991425,
1.9275,-0.13469915091991425,
1.9299999999999999,-0.13469915091991425,
1.9325000000000001,-0.13467511534690857,
1.9350000000000001,-0.13474723696708679,
1.9375,-0.13484339416027069,
1.9399999999999999,-0.13496360182762146,
1.9424999999999999,-0.13510784506797791,
1.9450000000000001,-0.13522803783416748,
1.9475,-0.13517996668815613,
1.95,-0.13498763740062714,
1.9524999999999999,-0.1346510648727417,
1.9550000000000001,-0.13366541266441345,
1.9575,-0.1330643892288208,
1.96,-0.13246338069438934,
1.9624999999999999,-0.13188640773296356,
1.9650000000000001,-0.13109306991100311,
1.9675,-0.13090074062347412,
1.97,-0.13087670505046844,
1.9724999999999999,-0.13099691271781921,
1.9750000000000001,-0.13154983520507812,
1.9775,-0.13191044330596924,
1.98,-0.13227105140686035,
1.9824999999999999,-0.13260762393474579,
1.9850000000000001,-0.13311247527599335,
1.9875,-0.13323268294334412,
1.99,-0.13325671851634979,
1.9924999999999999,-0.13311247527599335,
1.9950000000000001,-0.13239125907421112,
1.9975000000000001,-0.13174216449260712,
2,-0.13090074062347412,88.050315856933594
2.0024999999999999,-0.12986700236797333,
2.0049999999999999,-0.12741486728191376,
2.0074999999999998,-0.12604455649852753,
2.0099999999999998,-0.12469828128814697,
2.0125000000000002,-0.12340009212493896,
2.0150000000000001,-0.12116432189941406,
2.0175000000000001,-0.12027482688426971,
2.02,-0.11948148906230927,
2.0225,-0.11876027286052704,
2.0249999999999999,-0.11731784045696259,
2.0274999999999999,-0.11645238101482391,
2.0299999999999998,-0.11541863530874252,
2.0325000000000002,-0.11424064636230469,
2.0350000000000001,-0.11137982457876205,
2.0375000000000001,-0.10979314893484116,
2.04,-0.10825455188751221,
2.0425,-0.10678808391094208,
2.0449999999999999,-0.10445614904165268,
2.0474999999999999,-0.10366281121969223,
2.0499999999999998,-0.10310988128185272,
2.0525000000000002,-0.10274927318096161,
2.0550000000000002,-0.10226845741271973,
2.0575000000000001,-0.10195593535900116,
2.0600000000000001,-0.10142704099416733,
2.0625,-0.10068178176879883,
2.0649999999999999,-0.098325811326503754,
2.0674999999999999,-0.096811257302761078,
2.0699999999999998,-0.09517650306224823,
2.0724999999999998,-0.093517705798149109,
2.0750000000000002,-0.090608797967433929,
2.0775000000000001,-0.089502930641174316,
2.0800000000000001,-0.088709592819213867,
2.0825,-0.088228784501552582,
2.085,-0.088084541261196136,
2.0874999999999999,-0.088276863098144531,
2.0899999999999999,-0.088565349578857422,
2.0924999999999998,-0.088853836059570312,
2.0950000000000002,-0.089286565780639648,
2.0975000000000001,-0.089334651827812195,
2.1000000000000001,-0.089286565780639648,
2.1025,-0.089142322540283203,
2.105,-0.088589392602443695,
2.1074999999999999,-0.088204741477966309,
2.1099999999999999,-0.087796054780483246,
2.1124999999999998,-0.08736332505941391,
2.1150000000000002,-0.086425743997097015,
2.1175000000000002,-0.08594493567943573,
2.1200000000000001,-0.085464119911193848,
2.1225000000000001,-0.085007354617118835,
2.125,-0.084238052368164062,
2.1274999999999999,-0.083973608911037445,
2.1299999999999999,-0.08378128707408905,
2.1324999999999998,-0.083685122430324554,
2.1349999999999998,-0.083757244050502777,
2.1375000000000002,-0.083853408694267273,
2.1400000000000001,-0.083973608911037445,
2.1425000000000001,-0.084045730531215668,
2.145,-0.083877444267272949,
2.1475,-0.083588957786560059,
2.1499999999999999,-0.083060070872306824,
2.1524999999999999,-0.082314811646938324,
2.1549999999999998,-0.080054998397827148,
2.1575000000000002,-0.078516408801078796,
2.1600000000000001,-0.07671336829662323,
2.1625000000000001,-0.074693962931632996,
2.165,-0.070222422480583191,
2.1675,-0.067914530634880066,
2.1699999999999999,-0.065678760409355164,
2.1724999999999999,-0.063611268997192383,
2.1749999999999998,-0.060437917709350586,
2.1775000000000002,-0.059524379670619965,
2.1800000000000002,-0.059115689247846603,
2.1825000000000001,-0.059235893189907074,
2.1850000000000001,-0.060870647430419922,
2.1875,-0.06216883659362793,
2.1899999999999999,-0.063563190400600433,
2.1924999999999999,-0.064813300967216492,
2.1949999999999998,-0.065895125269889832,
2.1974999999999998,-0.065294109284877777,
2.2000000000000002,-0.063659355044364929,
2.2025000000000001,-0.060894690454006195,
2.2050000000000001,-0.052095852792263031,
2.2075,-0.046302080154418945,
2.21,-0.039883255958557129,
2.2124999999999999,-0.03322402760386467,
2.2149999999999999,-0.020602744072675705,
2.2174999999999998,-0.015409986488521099,
2.2200000000000002,-0.011467337608337402,
2.2225000000000001,-0.0089911622926592827,
2.2250000000000001,-0.0091113653033971786,
2.2275,-0.011707743629813194,
2.23,-0.015818675979971886,
2.2324999999999999,-0.021179717034101486,
2.2349999999999999,-0.034329891204833984,
2.2374999999999998,-0.04137377068400383,
2.2400000000000002,-0.048225324600934982,
2.2425000000000002,-0.054572027176618576,
2.2450000000000001,-0.06502966582775116,
2.2475000000000001,-0.068972311913967133,
2.25,-0.07209758460521698,
2.2524999999999999,-0.074525676667690277,
2.2549999999999999,-0.077915392816066742,
2.2574999999999998,-0.079141460359096527,
2.2599999999999998,-0.080127120018005371,
2.2625000000000002,-0.080848336219787598,
2.2650000000000001,-0.080992579460144043,
2.2675000000000001,-0.080079041421413422,
2.27,-0.078348122537136078,
2.2725,-0.075775787234306335,
2.2749999999999999,-0.068924233317375183,
2.2774999999999999,-0.065606638789176941,
2.2799999999999998,-0.063274703919887543,
2.2825000000000002,-0.06286601722240448,
2.2850000000000001,-0.07140040397644043,
2.2875000000000001,-0.081785917282104492,
2.29,-0.096691057085990906,
2.2925,-0.11585136502981186,
2.2949999999999999,-0.16335546970367432,
2.2974999999999999,-0.18847784399986267,
2.2999999999999998,-0.21153271198272705,
2.3025000000000002,-0.22980353236198425,
2.3050000000000002,-0.24035732448101044,
2.3075000000000001,-0.22703886032104492,
2.3100000000000001,-0.19816617667675018,
2.3125,-0.15208046138286591,
2.3149999999999999,-0.0066351890563964844,
2.3174999999999999,0.090584754943847656,
2.3199999999999998,0.20045003294944763,
2.3224999999999998,0.31851312518119812,
2.3250000000000002,0.55540859699249268,
2.3275000000000001,0.66044175624847412,
2.3300000000000001,0.7471078634262085,
2.3325,0.80901229381561279,
2.335,0.84055346250534058,
2.3374999999999999,0.80641591548919678,
2.3399999999999999,0.74056887626647949,
2.3424999999999998,0.64729154109954834,
2.3450000000000002,0.40541967749595642,
2.3475000000000001,0.27329286932945251,
2.3500000000000001,0.14508466422557831,
2.3525,0.028367837890982628,
2.355,-0.14883498847484589,
2.3574999999999999,-0.20379166305065155,
2.3599999999999999,-0.23634254932403564,
2.3624999999999998,-0.24896383285522461,
2.3650000000000002,-0.23016414046287537,
2.3675000000000002,-0.20795068144798279,
2.3700000000000001,-0.1829485148191452,
2.3725000000000001,-0.15854737162590027,
2.375,-0.1200103759765625,
2.3774999999999999,-0.10738909244537354,
2.3799999999999999,-0.098830662667751312,
2.3824999999999998,-0.09339749813079834,
2.3849999999999998,-0.087387368083000183,
2.3875000000000002,-0.08486311137676239,
2.3900000000000001,-0.081858038902282715,
2.3925000000000001,-0.078107714653015137,
2.395,-0.068924233317375183,
2.3975,-0.064092084765434265,
2.3999999999999999,-0.059500336647033691,
2.4024999999999999,-0.055437486618757248,
2.4049999999999998,-0.049283109605312347,
2.4075000000000002,-0.047095417976379395,
2.4100000000000001,-0.045316420495510101,
2.4125000000000001,-0.043801866471767426,
2.415,-0.040844880044460297,
2.4175,-0.03921012207865715,
2.4199999999999999,-0.037431120872497559,
2.4224999999999999,-0.035531919449567795,
2.4249999999999998,-0.031565230339765549,
2.4275000000000002,-0.029593905434012413,
2.4300000000000002,-0.027670662850141525,
2.4325000000000001,-0.025771459564566612,
2.4350000000000001,-0.02199709415435791,
2.4375,-0.0200017299503088,
2.4399999999999999,-0.017910202965140343,
2.4424999999999999,-0.01567443273961544,
2.4449999999999998,-0.010794202797114849,
2.4474999999999998,-0.0081737842410802841,
2.4500000000000002,-0.0055052838288247585,
2.4525000000000001,-0.0028367838822305202,
2.4550000000000001,0.0023319325409829617,
2.4575,0.0048081083223223686,
2.46,0.0071640810929238796,
2.4624999999999999,0.0094719734042882919,
2.4649999999999999,0.013967554084956646,
2.4674999999999998,0.016275446861982346,
2.4700000000000002,0.018679499626159668,
2.4725000000000001,0.021227797493338585,
2.4750000000000001,0.026997527107596397,
2.4775,0.030267041176557541,
2.48,0.033825039863586426,
2.4824999999999999,0.0376715287566185,
2.4849999999999999,0.046109758317470551,
2.4874999999999998,0.050653420388698578,
2.4900000000000002,0.055389404296875,
2.4925000000000002,0.060269635170698166,
2.4950000000000001,0.070438787341117859,
2.4975000000000001,0.075727701187133789,
2.5,0.081160865724086761,
2.5024999999999999,0.092556081712245941,
2.5049999999999999,0.098518133163452148,
2.5074999999999998,0.10467251390218735,
2.5099999999999998,0.11099517345428467,
2.5125000000000002,0.11738996207714081,
2.5150000000000001,0.13027569651603699,
2.5175000000000001,0.13657431304454803,
2.52,0.14268061518669128,
2.5225,0.15393158793449402,
2.5249999999999999,0.1589801013469696,
2.5274999999999999,0.16361992061138153,
2.5299999999999998,0.16782701015472412,
2.5325000000000002,0.17503917217254639,
2.5350000000000001,0.17809233069419861,
2.5375000000000001,0.18076083064079285,
2.54,0.1830446720123291,
2.5425,0.18631419539451599,
2.5449999999999999,0.18710753321647644,
2.5474999999999999,0.18717965483665466,
2.5499999999999998,0.18645843863487244,
2.5525000000000002,0.18475155532360077,
2.5550000000000002,0.17804424464702606,
2.5575000000000001,0.17285148799419403,
2.5600000000000001,0.16643266379833221,
2.5625,0.15871565043926239,
2.5649999999999999,0.13974766433238983,
2.5674999999999999,0.12866497039794922,
2.5699999999999998,0.11666874587535858,
2.5724999999999998,0.10395129770040512,
2.5750000000000002,0.07709801197052002,
2.5775000000000001,0.063370868563652039,
2.5800000000000001,0.049715839326381683,
2.5825,0.036349296569824219,
2.585,0.011154810898005962,
2.5874999999999999,-0.00036060810089111328,
2.5899999999999999,-0.01105864904820919,
2.5924999999999998,-0.029762189835309982,
2.5950000000000002,-0.037815771996974945,
2.5975000000000001,-0.045027934014797211,
2.6000000000000001,-0.05151887983083725,
2.6025,-0.062529444694519043,
2.605,-0.067217350006103516,
2.6074999999999999,-0.071424447000026703,
2.6099999999999999,-0.07522284984588623,
2.6124999999999998,-0.081689760088920593,
2.6150000000000002,-0.084382295608520508,
2.6175000000000002,-0.086762309074401855,
2.6200000000000001,-0.088805757462978363,
2.6225000000000001,-0.092027187347412109,
2.625,-0.093253254890441895,
2.6274999999999999,-0.094262957572937012,
2.6299999999999999,-0.095056295394897461,
2.6324999999999998,-0.096138119697570801,
2.6349999999999998,-0.096474692225456238,
2.6375000000000002,-0.096691057085990906,
2.6400000000000001,-0.096787214279174805,
2.6425000000000001,-0.096667014062404633,
2.645,-0.096498727798461914,
2.6475,-0.096282362937927246,
2.6499999999999999,-0.096041962504386902,
2.6524999999999999,-0.09556114673614502,
2.6549999999999998,-0.095344781875610352,
2.6575000000000002,-0.09517650306224823,
2.6600000000000001,-0.095080338418483734,
2.6625000000000001,-0.095008216798305511,
2.665,-0.095008216798305511,
2.6675,-0.095056295394897461,
2.6699999999999999,-0.095056295394897461,
2.6724999999999999,-0.094984173774719238,
2.6749999999999998,-0.094815894961357117,
2.6775000000000002,-0.094575487077236176,
2.6800000000000002,-0.094238921999931335,
2.6825000000000001,-0.093301340937614441,
2.6850000000000001,-0.092748403549194336,
2.6875,-0.092171430587768555,
2.6899999999999999,-0.091618500649929047,
2.6924999999999999,-0.090704962611198425,
2.6949999999999998,-0.090368390083312988,
2.6974999999999998,-0.090103946626186371,
2.7000000000000002,-0.089935660362243652,
2.7025000000000001,-0.089719295501708984,
2.7050000000000001,-0.089623138308525085,
2.7075,-0.089502930641174316,
2.71,-0.089334651827812195,
2.7124999999999999,-0.088853836059570312,
2.7149999999999999,-0.088589392602443695,
2.7174999999999998,-0.088324949145317078,
2.7200000000000002,-0.088084541261196136,
2.7225000000000001,-0.087747976183891296,
2.7250000000000001,-0.08769989013671875,
2.7275,-0.08769989013671875,
2.73,-0.087747976183891296,
2.7324999999999999,-0.087796054780483246,
2.7349999999999999,-0.08769989013671875,
2.7374999999999998,-0.087483525276184082,
2.7400000000000002,-0.087074838578701019,
2.7425000000000002,-0.085752606391906738,
2.7450000000000001,-0.084839068353176117,
2.7475000000000001,-0.08378128707408905,
2.75,-0.082627341151237488,
2.7524999999999999,-0.080271363258361816,
2.7549999999999999,-0.079141460359096527,
2.7574999999999998,-0.07808367908000946,
2.7599999999999998,-0.077122054994106293,
2.7625000000000002,-0.075511336326599121,
2.7650000000000001,-0.074862241744995117,
2.7675000000000001,-0.07426123321056366,
2.77,-0.073732338845729828,
2.7725,-0.07277071475982666,
2.7749999999999999,-0.072289906442165375,
2.7774999999999999,-0.071809098124504089,
2.7799999999999998,-0.071304246783256531,
2.7825000000000002,-0.07027050107717514,
2.7850000000000001,-0.069765649735927582,
2.7875000000000001,-0.069260798394680023,
2.79,-0.068804025650024414,
2.7925,-0.068010687828063965,
2.7949999999999999,-0.067698165774345398,
2.7974999999999999,-0.067433714866638184,
2.7999999999999998,-0.067241393029689789,
2.8025000000000002,-0.066952906548976898,
2.8050000000000002,-0.066808663308620453,
2.8075000000000001,-0.066664420068264008,
2.8100000000000001,-0.066496133804321289,
2.8125,-0.066015325486660004,
2.8149999999999999,-0.065678760409355164,
2.8174999999999999,-0.06531815230846405,
2.8199999999999998,-0.064885422587394714,
2.8224999999999998,-0.063971877098083496,
2.8250000000000002,-0.063515111804008484,
2.8275000000000001,-0.063058339059352875,
2.8300000000000001,-0.062625609338283539,
2.8325,-0.061928432434797287,
2.835,-0.061663985252380371,
2.8374999999999999,-0.061423581093549728,
2.8399999999999999,-0.061231255531311035,
2.8424999999999998,-0.06091872975230217,
2.8450000000000002,-0.060774486511945724,
2.8475000000000001,-0.060606203973293304,
2.8500000000000001,-0.060437917709350586,
2.8525,-0.060029231011867523,
2.855,-0.059716701507568359,
2.8574999999999999,-0.059332054108381271,
2.8599999999999999,-0.058803163468837738,
2.8624999999999998,-0.057264566421508789,
2.8650000000000002,-0.0561346635222435,
2.8675000000000002,-0.054788392037153244,
2.8700000000000001,-0.053153634071350098,
2.8725000000000001,-0.049210987985134125,
2.875,-0.046927135437726974,
2.8774999999999999,-0.044571161270141602,
2.8799999999999999,-0.042167108505964279,
2.8824999999999998,-0.037767689675092697,
2.8849999999999998,-0.035940609872341156,
2.8875000000000002,-0.034522216767072678,
2.8900000000000001,-0.033608675003051758,
2.8925000000000001,-0.033416353166103363,
2.895,-0.034161608666181564,
2.8975,-0.035411715507507324,
2.8999999999999999,-0.037046473473310471,
2.9024999999999999,-0.040724676102399826,
2.9049999999999998,-0.042311351746320724,
2.9075000000000002,-0.043393176048994064,
2.9100000000000001,-0.04370570182800293,
2.9125000000000001,-0.041157405823469162,
2.915,-0.038032136857509613,
2.9175,-0.033656757324934006,
2.9199999999999999,-0.028103392571210861,
2.9224999999999999,-0.014568567276000977,
2.9249999999999998,-0.0073083243332803249,
2.9275000000000002,-0.000312527030473575,
2.9300000000000002,0.0059380135498940945,
2.9325000000000001,0.014496445655822754,
2.9350000000000001,0.016179284080862999,
2.9375,0.015914838761091232,
2.9399999999999999,0.013679067604243755,
2.9424999999999999,0.0040628514252603054,
2.9449999999999998,-0.0026684999465942383,
2.9474999999999998,-0.010145108215510845,
2.9500000000000002,-0.017910202965140343,
2.9525000000000001,-0.032719176262617111,
2.9550000000000001,-0.039113961160182953,
2.9575,-0.044547121971845627,
2.96,-0.048994623124599457,
2.9624999999999999,-0.055076878517866135,
2.9649999999999999,-0.057072244584560394,
2.9674999999999998,-0.05858679860830307,
2.9700000000000002,-0.05983690544962883,
2.9725000000000001,-0.061976514756679535,
2.9750000000000001,-0.062890052795410156,
2.9775,-0.063563190400600433,
2.98,-0.063779555261135101,
2.9824999999999999,-0.062048636376857758,
2.9849999999999999,-0.05983690544962883,
2.9874999999999998,-0.05675971508026123,
2.9900000000000002,-0.053153634071350098,
2.9925000000000002,-0.046614609658718109,
2.9950000000000001,-0.045316420495510101,
2.9975000000000001,-0.046614609658718109,
3,-0.051422715187072754,74.380165100097656
3.0024999999999999,-0.074141025543212891,
3.0049999999999999,-0.092363759875297546,
3.0074999999999998,-0.1145050972700119,
3.0099999999999998,-0.13943514227867126,
3.0125000000000002,-0.1899443119764328,
3.0150000000000001,-0.21061918139457703,
3.0175000000000001,-0.22441844642162323,
3.02,-0.22838513553142548,
3.0225,-0.19597849249839783,
3.0249999999999999,-0.15530189871788025,
3.0274999999999999,-0.096715092658996582,
3.0299999999999998,-0.020242135971784592,
3.0325000000000002,0.17984728515148163,
3.0350000000000001,0.29687663912773132,
3.0375000000000001,0.4185938835144043,
3.04,0.53867638111114502,
3.0425,0.74571353197097778,
3.0449999999999999,0.81877273321151733,
3.0474999999999999,0.86363238096237183,
3.0499999999999998,0.87637388706207275,
3.0525000000000002,0.80117505788803101,
3.0550000000000002,0.71727359294891357,
3.0575000000000001,0.60921132564544678,
3.0600000000000001,0.48439285159111023,
3.0625,0.21855255961418152,
3.0649999999999999,0.094407200813293457,
3.0674999999999999,-0.014448365196585655,
3.0699999999999998,-0.1031339168548584,
3.0724999999999998,-0.21198949217796326,
3.0750000000000002,-0.23352980613708496,
3.0775000000000001,-0.23703972995281219,
3.0800000000000001,-0.22679845988750458,
3.0825,-0.18350145220756531,
3.085,-0.15866756439208984,
3.0874999999999999,-0.13575693964958191,
3.0899999999999999,-0.11647641658782959,
3.0924999999999998,-0.090873241424560547,
3.0950000000000002,-0.083661079406738281,
3.0975000000000001,-0.078949138522148132,
3.1000000000000001,-0.07567962259054184,
3.1025,-0.070246458053588867,
3.105,-0.067121192812919617,
3.1074999999999999,-0.06353914737701416,
3.1099999999999999,-0.059692662209272385,
3.1124999999999998,-0.051999688148498535,
3.1150000000000002,-0.04860997200012207,
3.1175000000000002,-0.045677028596401215,
3.1200000000000001,-0.043224893510341644,
3.1225000000000001,-0.039354365319013596,
3.125,-0.037647485733032227,
3.1274999999999999,-0.035916566848754883,
3.1299999999999999,-0.034089487046003342,
3.1324999999999998,-0.029906433075666428,
3.1349999999999998,-0.027598541229963303,
3.1375000000000002,-0.025218527764081955,
3.1400000000000001,-0.022862553596496582,
3.1425000000000001,-0.018391013145446777,
3.145,-0.016371607780456543,
3.1475,-0.014544527046382427,
3.1499999999999999,-0.012909770011901855,
3.1524999999999999,-0.0099287433549761772,
3.1549999999999998,-0.0085103511810302734,
3.1575000000000002,-0.007043878547847271,
3.1600000000000001,-0.0054572029039263725,
3.1625000000000001,-0.0018030405044555664,
3.165,0.00033656758023425937,
3.1675,0.0026444594841450453,
3.1699999999999999,0.0051446757279336452,
3.1724999999999999,0.010481676086783409,
3.1749999999999998,0.013270378112792969,
3.1775000000000002,0.016059082001447678,
3.1800000000000002,0.018823742866516113,
3.1825000000000001,0.024401148781180382,
3.1850000000000001,0.027237933129072189,
3.1875,0.030098756775259972,
3.1899999999999999,0.03305574506521225,
3.1924999999999999,0.039306282997131348,
3.1949999999999998,0.042647920548915863,
3.1974999999999998,0.046181879937648773,
3.2000000000000002,0.049908161163330078,
3.2025000000000001,0.058033864945173264,
3.2050000000000001,0.062481366097927094,
3.2075,0.067217350006103516,
3.21,0.072241827845573425,
3.2124999999999999,0.083180271089076996,
3.2149999999999999,0.08907020092010498,
3.2174999999999998,0.095200538635253906,
3.2200000000000002,0.10152320563793182,
3.2225000000000001,0.11452913284301758,
3.2250000000000001,0.12109220027923584,
3.2275,0.12763123214244843,
3.23,0.13407409191131592,
3.2324999999999999,0.14647901058197021,
3.2349999999999999,0.1523689478635788,
3.2374999999999998,0.15799443423748016,
3.2400000000000002,0.16337952017784119,
3.2425000000000002,0.17326018214225769,
3.2450000000000001,0.17780384421348572,
3.2475000000000001,0.18205901980400085,
3.25,0.1860257089138031,
3.2524999999999999,0.19304554164409637,
3.2549999999999999,0.19602656364440918,
3.2574999999999998,0.19857487082481384,
3.2599999999999998,0.20054619014263153,
3.2625000000000002,0.2022530734539032,
3.2650000000000001,0.20165205001831055,
3.2675000000000001,0.19984900951385498,
3.27,0.19669970870018005,
3.2725,0.18592953681945801,
3.2749999999999999,0.17828464508056641,
3.2774999999999999,0.16919732093811035,
3.2799999999999998,0.15883585810661316,
3.2825000000000002,0.13496360182762146,
3.2850000000000001,0.12193362414836884,
3.2875000000000001,0.10851900279521942,
3.29,0.094912052154541016,
3.2925,0.067842409014701843,
3.2949999999999999,0.054644148796796799,
3.2974999999999999,0.041830539703369141,
3.2999999999999998,0.029401581734418869,
3.3025000000000002,0.0060341758653521538,
3.3050000000000002,-0.0048561892472207546,
3.3075000000000001,-0.015145540237426758,
3.3100000000000001,-0.024809837341308594,
3.3125,-0.042022865265607834,
3.3149999999999999,-0.049547553062438965,
3.3174999999999999,-0.05630294606089592,
3.3199999999999998,-0.062313079833984375,
3.3224999999999998,-0.072313949465751648,
3.3250000000000002,-0.076448917388916016,
3.3275000000000001,-0.080103084444999695,
3.3300000000000001,-0.083348557353019714,
3.3325,-0.088974043726921082,
3.335,-0.091402135789394379,
3.3374999999999999,-0.093637906014919281,
3.3399999999999999,-0.095609232783317566,
3.3424999999999998,-0.098830662667751312,
3.3450000000000002,-0.099984608590602875,
3.3475000000000001,-0.10082602500915527,
3.3500000000000001,-0.10137896239757538,
3.3525,-0.10171552747488022,
3.355,-0.10159532725811005,
3.3574999999999999,-0.10137896239757538,
3.3599999999999999,-0.10111451148986816,
3.3624999999999998,-0.1007058247923851,
3.3650000000000002,-0.10063370317220688,
3.3675000000000002,-0.10065774619579315,
3.3700000000000001,-0.10082602500915527,
3.3725000000000001,-0.10135491937398911,
3.375,-0.101643405854702,
3.3774999999999999,-0.10193189233541489,
3.3799999999999999,-0.10212421417236328,
3.3824999999999998,-0.1021963357925415,
3.3849999999999998,-0.10205209255218506,
3.3875000000000002,-0.10183572769165039,
3.3900000000000001,-0.10152320563793182,
3.3925000000000001,-0.1008019894361496,
3.395,-0.10041733831167221,
3.3975,-0.10008077323436737,
3.3999999999999999,-0.099744200706481934,
3.4024999999999999,-0.09909510612487793,
3.4049999999999998,-0.098782584071159363,
3.4075000000000002,-0.098470054566860199,
3.4100000000000001,-0.098157525062561035,
3.4125000000000001,-0.097556516528129578,
3.415,-0.097292065620422363,
3.4175,-0.097099743783473969,
3.4199999999999999,-0.096955500543117523,
3.4224999999999999,-0.096811257302761078,
3.4249999999999998,-0.096763178706169128,
3.4275000000000002,-0.096715092658996582,
3.4300000000000002,-0.096618935465812683,
3.4325000000000001,-0.096162162721157074,
3.4350000000000001,-0.095753476023674011,
3.4375,-0.095248624682426453,
3.4399999999999999,-0.094623565673828125,
3.4424999999999999,-0.093157097697257996,
3.4449999999999998,-0.092363759875297546,
3.4474999999999998,-0.091570422053337097,
3.4500000000000002,-0.090849205851554871,
3.4525000000000001,-0.089623138308525085,
3.4550000000000001,-0.089166365563869476,
3.4575,-0.088829800486564636,
3.46,-0.088565349578857422,
3.4624999999999999,-0.088252827525138855,
3.4649999999999999,-0.088132619857788086,
3.4674999999999998,-0.087988376617431641,
3.4700000000000002,-0.087796054780483246,
3.4725000000000001,-0.087171003222465515,
3.4750000000000001,-0.086714230477809906,
3.4775,-0.086137257516384125,
3.48,-0.085512205958366394,
3.4824999999999999,-0.084069773554801941,
3.4849999999999999,-0.083324514329433441,
3.4874999999999998,-0.082627341151237488,
3.4900000000000002,-0.081930160522460938,
3.4925000000000002,-0.080704092979431152,
3.4950000000000001,-0.080103084444999695,
3.4975000000000001,-0.079526111483573914,
3.5,-0.078901052474975586,
3.5024999999999999,-0.077578827738761902,
3.5049999999999999,-0.076857611536979675,
3.5074999999999998,-0.076088309288024902,
3.5099999999999998,-0.075343057513237,
3.5125000000000002,-0.0738525390625,
3.5150000000000001,-0.07317940890789032,
3.5175000000000001,-0.072578392922878265,
3.52,-0.072025462985038757,
3.5225,-0.071111917495727539,
3.5249999999999999,-0.07072727382183075,
3.5274999999999999,-0.070366665720939636,
3.5299999999999998,-0.070030093193054199,
3.5325000000000002,-0.069477163255214691,
3.5350000000000001,-0.06923675537109375,
3.5375000000000001,-0.068996354937553406,
3.54,-0.068804025650024414,
3.5425,-0.068491503596305847,
3.5449999999999999,-0.068371295928955078,
3.5474999999999999,-0.068275138735771179,
3.5499999999999998,-0.068203017115592957,
3.5525000000000002,-0.06815493106842041,
3.5550000000000002,-0.06815493106842041,
3.5575000000000001,-0.068203017115592957,
3.5600000000000001,-0.068251095712184906,
3.5625,-0.068347260355949402,
3.5649999999999999,-0.068347260355949402,
3.5674999999999999,-0.068299174308776855,
3.5699999999999998,-0.068227052688598633,
3.5724999999999998,-0.067890487611293793,
3.5750000000000002,-0.067650079727172852,
3.5775000000000001,-0.067337557673454285,
3.5800000000000001,-0.066976949572563171,
3.5825,-0.066087447106838226,
3.585,-0.065558552742004395,
3.5874999999999999,-0.064981579780578613,
3.5899999999999999,-0.064356528222560883,
3.5924999999999998,-0.063106417655944824,
3.5950000000000002,-0.062529444694519043,
3.5975000000000001,-0.062024593353271484,
3.6000000000000001,-0.061639945954084396,
3.6025,-0.06120721623301506,
3.605,-0.061183176934719086,
3.6074999999999999,-0.061231255531311035,
3.6099999999999999,-0.061351459473371506,
3.6124999999999998,-0.061423581093549728,
3.6150000000000002,-0.061255298554897308,
3.6175000000000002,-0.060822568833827972,
3.6200000000000001,-0.060101352632045746,
3.6225000000000001,-0.05750497430562973,
3.625,-0.055629812180995941,
3.6274999999999999,-0.053442120552062988,
3.6299999999999999,-0.051014028489589691,
3.6324999999999998,-0.045941472053527832,
3.6349999999999998,-0.043609540909528732,
3.6375000000000002,-0.041614174842834473,
3.6400000000000001,-0.040099620819091797,
3.6425000000000001,-0.038945674896240234,
3.645,-0.03937840461730957,
3.6475,-0.04046022891998291,
3.6499999999999999,-0.042070947587490082,
3.6524999999999999,-0.046302080154418945,
3.6549999999999998,-0.048417650163173676,
3.6575000000000002,-0.050220690667629242,
3.6600000000000001,-0.051374636590480804,
3.6625000000000001,-0.050845742225646973,
3.665,-0.048778258264064789,
3.6675,-0.045412581413984299,
3.6699999999999999,-0.040772758424282074,
3.6724999999999999,-0.028391879051923752,
3.6749999999999998,-0.021275877952575684,
3.6775000000000002,-0.014063715934753418,
3.6800000000000002,-0.0072121620178222656,
3.6825000000000001,0.0036060810089111328,
3.6850000000000001,0.0068515539169311523,
3.6875,0.0083420677110552788,
3.6899999999999999,0.0080054998397827148,
3.6924999999999999,0.002043446060270071,
3.6949999999999998,-0.0031252703629434109,
3.6974999999999998,-0.0093277301639318466,
3.7000000000000002,-0.016227364540100098,
3.7025000000000001,-0.030579566955566406,
3.7050000000000001,-0.037407081574201584,
3.7075,-0.043729744851589203,
3.71,-0.04940330982208252,
3.7124999999999999,-0.058538716286420822,
3.7149999999999999,-0.062072675675153732,
3.7174999999999998,-0.06502966582775116,
3.7200000000000002,-0.067433714866638184,
3.7225000000000001,-0.070895552635192871,
3.7250000000000001,-0.071977376937866211,
3.7275,-0.072554349899291992,
3.73,-0.072530314326286316,
3.7324999999999999,-0.070246458053588867,
3.7349999999999999,-0.06786644458770752,
3.7374999999999998,-0.064717136323451996,
3.7400000000000002,-0.061062972992658615,
3.7425000000000002,-0.054067175835371017,
3.7450000000000001,-0.052095852792263031,
3.7475000000000001,-0.052312217652797699,
3.75,-0.055557690560817719,
3.7524999999999999,-0.074092946946620941,
3.7549999999999999,-0.090055868029594421,
3.7574999999999998,-0.11027395725250244,
3.7599999999999998,-0.13388177752494812,
3.7625000000000002,-0.18513619899749756,
3.7650000000000001,-0.2084074467420578,
3.7675000000000001,-0.22655805945396423,
3.77,-0.23660700023174286,
3.7725,-0.22086045145988464,
3.7749999999999999,-0.18999239802360535,
3.7774999999999999,-0.14150261878967285,
3.7799999999999998,-0.074693962931632996,
3.7825000000000002,0.11041820049285889,
3.7850000000000001,0.2236010730266571,
3.7875000000000001,0.3447413444519043,
3.79,0.46794912219047546,
3.7925,0.69258391857147217,
3.7949999999999999,0.7794424295425415,
3.7974999999999999,0.84045732021331787,
3.7999999999999998,0.87065219879150391,
3.8025000000000002,0.82896590232849121,
3.8050000000000002,0.75862330198287964,
3.8075000000000001,0.66048979759216309,
3.8100000000000001,0.54132086038589478,
3.8125,0.27338904142379761,
3.8149999999999999,0.14224788546562195,
3.8174999999999999,0.023631852120161057,
3.8199999999999998,-0.076472960412502289,
3.8224999999999998,-0.2083112895488739,
3.8250000000000002,-0.23939570784568787,
3.8275000000000001,-0.25021395087242126,
3.8300000000000001,-0.2447807788848877,
3.8325,-0.20422439277172089,
3.835,-0.17818848788738251,
3.8374999999999999,-0.1531141996383667,
3.8399999999999999,-0.13135752081871033,
3.8424999999999998,-0.10140299797058105,
3.8450000000000002,-0.092820525169372559,
3.8475000000000001,-0.087339282035827637,
3.8500000000000001,-0.083757244050502777,
3.8525,-0.078276000916957855,
3.855,-0.075030528008937836,
3.8574999999999999,-0.071111917495727539,
3.8599999999999999,-0.066616341471672058,
3.8624999999999998,-0.057000122964382172,
3.8650000000000002,-0.052528582513332367,
3.8675000000000002,-0.048634015023708344,
3.8700000000000001,-0.045388542115688324,
3.8725000000000001,-0.040868919342756271,
3.875,-0.039306282997131348,
3.8774999999999999,-0.03796001523733139,
3.8799999999999999,-0.036685865372419357,
3.8824999999999998,-0.033873122185468674,
3.8849999999999998,-0.032190285623073578,
3.8875000000000002,-0.030363202095031738,
3.8900000000000001,-0.028391879051923752,
3.8925000000000001,-0.024304986000061035,
3.895,-0.022261541336774826,
3.8975,-0.020266175270080566,
3.8999999999999999,-0.018318891525268555,
3.9024999999999999,-0.014520486816763878,
3.9049999999999998,-0.012621283531188965,
3.9075000000000002,-0.010698040947318077,
3.9100000000000001,-0.0087267160415649414,
3.9125000000000001,-0.0046879053115844727,
3.915,-0.0026204190216958523,
3.9175,-0.00057697296142578125,
3.9199999999999999,0.001466472982428968,
3.9224999999999999,0.0055774054490029812,
3.9249999999999998,0.0076689324341714382,
3.9275000000000002,0.0098566217347979546,
3.9300000000000002,0.01214047335088253,
3.9325000000000001,0.017261108383536339,
3.9350000000000001,0.020145973190665245,
3.9375,0.023247202858328819,
3.9399999999999999,0.026564797386527061,
3.9424999999999999,0.033776961266994476,
3.9449999999999998,0.037599407136440277,
3.9474999999999998,0.04154205322265625,
3.9500000000000002,0.045556824654340744,
3.9525000000000001,0.053922932595014572,
3.9550000000000001,0.058322351425886154,
3.9575,0.062890052795410156,
3.96,0.067674122750759125,
3.9624999999999999,0.078035593032836914,
3.9649999999999999,0.083637043833732605,
3.9674999999999998,0.089454852044582367,
3.9700000000000002,0.095464989542961121,
3.9725000000000001,0.10784586519002914,
3.9750000000000001,0.11407236754894257,
3.9775,0.12025078386068344,
3.98,0.12630900740623474,
3.9824999999999999,0.13799270987510681,
3.9849999999999999,0.14359414577484131,
3.9874999999999998,0.14902731776237488,
3.9900000000000002,0.15429219603538513,
3.9925000000000002,0.16434113681316376,
3.9950000000000001,0.16910116374492645,
3.9975000000000001,0.17364482581615448,
4,0.17799615859985352,74.074073791503906
4.0025000000000004,0.18590550124645233,
4.0049999999999999,0.18934330344200134,
4.0075000000000003,0.19234836101531982,
4.0099999999999998,0.19480049610137939,
4.0125000000000002,0.19761323928833008,
4.0149999999999997,0.1976853609085083,
4.0175000000000001,0.19667565822601318,
4.0199999999999996,0.19448797404766083,
4.0225,0.18619398772716522,
4.0250000000000004,0.17999152839183807,
4.0274999999999999,0.17244279384613037,
4.0300000000000002,0.16364395618438721,
4.0324999999999998,0.14284889400005341,
4.0350000000000001,0.13118922710418701,
4.0374999999999996,0.11895259469747543,
4.04,0.10633131116628647,
4.0425000000000004,0.080607935786247253,
4.0449999999999999,0.067794322967529297,
4.0475000000000003,0.055149000138044357,
4.0499999999999998,0.04274408146739006,
4.0525000000000002,0.018967986106872559,
4.0549999999999997,0.0076929731294512749,
4.0575000000000001,-0.0031012296676635742,
4.0599999999999996,-0.013318459503352642,
4.0625,-0.031853716820478439,
4.0650000000000004,-0.040027499198913574,
4.0674999999999999,-0.047407947480678558,
4.0700000000000003,-0.05401909351348877,
4.0724999999999998,-0.064933501183986664,
4.0750000000000002,-0.069308876991271973,
4.0774999999999997,-0.073059201240539551,
4.0800000000000001,-0.076256595551967621,
4.0824999999999996,-0.081305108964443207,
4.085,-0.083300471305847168,
4.0875000000000004,-0.085031390190124512,
4.0899999999999999,-0.086545944213867188,
4.0925000000000002,-0.089094243943691254,
4.0949999999999998,-0.090127989649772644,
4.0975000000000001,-0.091041527688503265,
4.0999999999999996,-0.091786786913871765,
4.1025,-0.092844568192958832,
4.1050000000000004,-0.093133054673671722,
4.1074999999999999,-0.093253254890441895,
4.1100000000000003,-0.093277297914028168,
4.1124999999999998,-0.09301285445690155,
4.1150000000000002,-0.092820525169372559,
4.1174999999999997,-0.092604160308837891,
4.1200000000000001,-0.092435881495475769,
4.1224999999999996,-0.092147395014762878,
4.125,-0.092027187347412109,
4.1275000000000004,-0.091906987130641937,
4.1299999999999999,-0.091762743890285492,
4.1325000000000003,-0.091354057192802429,
4.1349999999999998,-0.091041527688503265,
4.1375000000000002,-0.090656876564025879,
4.1399999999999997,-0.090200111269950867,
4.1425000000000001,-0.089046165347099304,
4.1449999999999996,-0.0883970707654953,
4.1475,-0.08769989013671875,
4.1500000000000004,-0.086954638361930847,
4.1524999999999999,-0.08553624153137207,
4.1550000000000002,-0.084887146949768066,
4.1574999999999998,-0.084358260035514832,
4.1600000000000001,-0.083973608911037445,
4.1624999999999996,-0.083829365670681,
4.165,-0.084093809127807617,
4.1675000000000004,-0.084598660469055176,
4.1699999999999999,-0.085271798074245453,
4.1725000000000003,-0.086834430694580078,
4.1749999999999998,-0.087579689919948578,
4.1775000000000002,-0.08810858428478241,
4.1799999999999997,-0.0883970707654953,
4.1825000000000001,-0.087892219424247742,
4.1849999999999996,-0.087098881602287292,
4.1875,-0.085993014276027679,
4.1900000000000004,-0.084622703492641449,
4.1924999999999999,-0.081593595445156097,
4.1950000000000003,-0.080103084444999695,
4.1974999999999998,-0.078756809234619141,
4.2000000000000002,-0.077602863311767578,
4.2024999999999997,-0.07596810907125473,
4.2050000000000001,-0.075463257730007172,
4.2074999999999996,-0.075102649629116058,
4.21,-0.074838206171989441,
4.2125000000000004,-0.074381433427333832,
4.2149999999999999,-0.074116989970207214,
4.2175000000000002,-0.073756381869316101,
4.2199999999999998,-0.073299609124660492,
4.2225000000000001,-0.07209758460521698,
4.2249999999999996,-0.071376368403434753,
4.2275,-0.070558987557888031,
4.2300000000000004,-0.069693528115749359,
4.2324999999999999,-0.067914530634880066,
4.2350000000000003,-0.067025028169155121,
4.2374999999999998,-0.066135525703430176,
4.2400000000000002,-0.06531815230846405,
4.2424999999999997,-0.063803598284721375,
4.2450000000000001,-0.063130460679531097,
4.2474999999999996,-0.062529444694519043,
4.25,-0.061952471733093262,
4.2525000000000004,-0.060990851372480392,
4.2549999999999999,-0.060606203973293304,
4.2575000000000003,-0.060269635170698166,
4.2599999999999998,-0.06000518798828125,
4.2625000000000002,-0.059716701507568359,
4.2649999999999997,-0.059692662209272385,
4.2675000000000001,-0.059740744531154633,
4.2699999999999996,-0.059860944747924805,
4.2725,-0.060149431228637695,
4.2750000000000004,-0.060293674468994141,
4.2774999999999999,-0.060389839112758636,
4.2800000000000002,-0.060461960732936859,
4.2824999999999998,-0.060389839112758636,
4.2850000000000001,-0.060317717492580414,
4.2874999999999996,-0.060245595872402191,
4.29,-0.060221552848815918,
4.2925000000000004,-0.060293674468994141,
4.2949999999999999,-0.060437917709350586,
4.2975000000000003,-0.060630243271589279,
4.2999999999999998,-0.060822568833827972,
4.3025000000000002,-0.06108701229095459,
4.3049999999999997,-0.061111055314540863,
4.3075000000000001,-0.061014890670776367,
4.3099999999999996,-0.060870647430419922,
4.3125,-0.060389839112758636,
4.3150000000000004,-0.060173474252223969,
4.3174999999999999,-0.06000518798828125,
4.3200000000000003,-0.059884987771511078,
4.3224999999999998,-0.059812866151332855,
4.3250000000000002,-0.059764783829450607,
4.3274999999999997,-0.05966862291097641,
4.3300000000000001,-0.059476297348737717,
4.3324999999999996,-0.05863487720489502,
4.335,-0.058009825646877289,
4.3375000000000004,-0.057264566421508789,
4.3399999999999999,-0.056447189301252365,
4.3425000000000002,-0.054740309715270996,
4.3449999999999998,-0.053898893296718597,
4.3475000000000001,-0.053081512451171875,
4.3499999999999996,-0.052264135330915451,
4.3525,-0.05043705552816391,
4.3550000000000004,-0.04935523122549057,
4.3574999999999999,-0.048081081360578537,
4.3600000000000003,-0.046662688255310059,
4.3624999999999998,-0.043489336967468262,
4.3650000000000002,-0.041902661323547363,
4.3674999999999997,-0.04046022891998291,
4.3700000000000001,-0.039282243698835373,
4.3724999999999996,-0.038224458694458008,
4.375,-0.038488905876874924,
4.3775000000000004,-0.039258204400539398,
4.3799999999999999,-0.040508311241865158,
4.3825000000000003,-0.043753784149885178,
4.3849999999999998,-0.045292377471923828,
4.3875000000000002,-0.046422284096479416,
4.3899999999999997,-0.046855013817548752,
4.3925000000000001,-0.044667325913906097,
4.3949999999999996,-0.041710339486598969,
4.3975,-0.037479203194379807,
4.4000000000000004,-0.032046042382717133,
4.4024999999999999,-0.018607378005981445,
4.4050000000000002,-0.011299054138362408,
4.4074999999999998,-0.0042311353608965874,
4.4100000000000001,0.0021155676804482937,
4.4124999999999996,0.010938446037471294,
4.415,0.012741486541926861,
4.4175000000000004,0.012549161911010742,
4.4199999999999999,0.010361473076045513,
4.4225000000000003,0.00074525678064674139,
4.4249999999999998,-0.0060101351700723171,
4.4275000000000002,-0.013486742973327637,
4.4299999999999997,-0.021227797493338585,
4.4325000000000001,-0.035796366631984711,
4.4349999999999996,-0.041950743645429611,
4.4375,-0.047143500298261642,
4.4400000000000004,-0.051302514970302582,
4.4424999999999999,-0.057000122964382172,
4.4450000000000003,-0.05892336368560791,
4.4474999999999998,-0.060486000031232834,
4.4500000000000002,-0.06183227151632309,
4.4524999999999997,-0.06423632800579071,
4.4550000000000001,-0.065101787447929382,
4.4574999999999996,-0.065510474145412445,
4.46,-0.065221987664699554,
4.4625000000000004,-0.061760149896144867,
4.4649999999999999,-0.058514676988124847,
4.4675000000000002,-0.054547987878322601,
4.4699999999999998,-0.050388973206281662,
4.4725000000000001,-0.044619243592023849,
4.4749999999999996,-0.044931769371032715,
4.4775,-0.048706136643886566,
4.4800000000000004,-0.056711636483669281,
4.4824999999999999,-0.086906552314758301,
4.4850000000000003,-0.10863920301198959,
4.4874999999999998,-0.13354520499706268,
4.4900000000000002,-0.1600138396024704,
4.4924999999999997,-0.20876805484294891,
4.4950000000000001,-0.22571663558483124,
4.4974999999999996,-0.23384234309196472,
4.5,-0.23035645484924316,
4.5025000000000004,-0.1790299117565155,
4.5049999999999999,-0.12794375419616699,
4.5075000000000003,-0.059235893189907074,
4.5099999999999998,0.026228230446577072,
4.5125000000000002,0.23718397319316864,
4.5149999999999997,0.35426139831542969,
4.5175000000000001,0.47141095995903015,
4.5199999999999996,0.58190131187438965,
4.5225,0.75477683544158936,
4.5250000000000004,0.80454075336456299,
4.5274999999999999,0.82360488176345825,
4.5300000000000002,0.8097575306892395,
4.5324999999999998,0.68674206733703613,
4.5350000000000001,0.58538717031478882,
4.5374999999999996,0.46619415283203125,
4.54,0.3373609185218811,
4.5425000000000004,0.085055433213710785,
4.5449999999999999,-0.023151040077209473,
4.5475000000000003,-0.11190871894359589,
4.5499999999999998,-0.17821252346038818,
4.5525000000000002,-0.24297773838043213,
4.5549999999999997,-0.24605493247509003,
4.5575000000000001,-0.23494820296764374,
4.5599999999999996,-0.21441757678985596,
4.5625,-0.1630910336971283,
4.5650000000000004,-0.1393149346113205,
4.5674999999999999,-0.11972188949584961,
4.5700000000000003,-0.10510524362325668,
4.5724999999999998,-0.089454852044582367,
4.5750000000000002,-0.086401700973510742,
4.5774999999999997,-0.08486311137676239,
4.5800000000000001,-0.083709165453910828,
4.5824999999999996,-0.079646311700344086,
4.585,-0.076184473931789398,
4.5875000000000004,-0.071905255317687988,
4.5899999999999999,-0.067121192812919617,
4.5925000000000002,-0.05767325684428215,
4.5949999999999998,-0.053610406816005707,
4.5975000000000001,-0.050196647644042969,
4.5999999999999996,-0.047431986778974533,
4.6025,-0.043321054428815842,
4.6050000000000004,-0.041638217866420746,
4.6074999999999999,-0.039979420602321625,
4.6100000000000003,-0.038200419396162033,
4.6124999999999998,-0.034161608666181564,
4.6150000000000002,-0.031901799142360687,
4.6174999999999997,-0.029545824974775314,
4.6200000000000001,-0.027189850807189941,
4.6224999999999996,-0.022525986656546593,
4.625,-0.020314257591962814,
4.6275000000000004,-0.018150608986616135,
4.6299999999999999,-0.016035040840506554,
4.6325000000000003,-0.011900067329406738,
4.6349999999999998,-0.0098566217347979546,
4.6375000000000002,-0.0078372163698077202,
4.6399999999999997,-0.0058418512344360352,
4.6425000000000001,-0.0019472837448120117,
4.6449999999999996,-4.8081081331474707e-05,
4.6475,0.0018751621246337891,
4.6500000000000004,0.0038224458694458008,
4.6524999999999999,0.0080054998397827148,
4.6550000000000002,0.01031339168548584,
4.6574999999999998,0.012837648391723633,
4.6600000000000001,0.015602311119437218,
4.6624999999999996,0.021804770454764366,
4.665,0.025218527764081955,
4.6675000000000004,0.02877652645111084,
4.6699999999999999,0.032478772103786469,
4.6725000000000003,0.040075581520795822,
4.6749999999999998,0.043922066688537598,
4.6775000000000002,0.047816634178161621,
4.6799999999999997,0.051783323287963867,
4.6825000000000001,0.060029231011867523,
4.6849999999999996,0.064404606819152832,
4.6875,0.069020390510559082,
4.6900000000000004,0.073924660682678223,
4.6924999999999999,0.084478460252285004,
4.6950000000000003,0.090127989649772644,
4.6974999999999998,0.095945797860622406,
4.7000000000000002,0.10190784931182861,
4.7024999999999997,0.11392812430858612,
4.7050000000000001,0.11989017575979233,
4.7074999999999996,0.12580415606498718,
4.71,0.13159792125225067,
4.7125000000000004,0.14292101562023163,
4.7149999999999999,0.14840225875377655,
4.7175000000000002,0.15373925864696503,
4.7199999999999998,0.15895605087280273,
4.7225000000000001,0.16874055564403534,
4.7249999999999996,0.17321209609508514,
4.7275,0.17732302844524384,
4.7300000000000004,0.18102526664733887,
4.7324999999999999,0.18689116835594177,
4.7350000000000003,0.18895864486694336,
4.7374999999999998,0.19037704169750214,
4.7400000000000002,0.19107422232627869,
4.7424999999999997,0.19011259078979492,
4.7450000000000001,0.18830955028533936,
4.7474999999999996,0.185472771525383,
4.75,0.18157820403575897,
4.7525000000000004,0.17018298804759979,
4.7549999999999999,0.16263425350189209,
4.7575000000000003,0.15383541584014893,
4.7599999999999998,0.14390668272972107,
4.7625000000000002,0.12114028632640839,
4.7649999999999997,0.10871132463216782,
4.7675000000000001,0.09584963321685791,
4.7699999999999996,0.082819662988185883,
4.7725,0.057072244584560394,
4.7750000000000004,0.044691365212202072,
4.7774999999999999,0.032791297882795334,
4.7800000000000002,0.021468203514814377,
4.7824999999999998,0.00062505406094714999,
4.7850000000000001,-0.0088709592819213867,
4.7874999999999996,-0.017765959724783897,
4.79,-0.026035904884338379,
4.7925000000000004,-0.040676593780517578,
4.7949999999999999,-0.046999257057905197,
4.7975000000000003,-0.052624743431806564,
4.7999999999999998,-0.057577095925807953,
4.8025000000000002,-0.065534517168998718,
4.8049999999999997,-0.068611703813076019,
4.8075000000000001,-0.071256160736083984,
4.8099999999999996,-0.073540017008781433,
4.8125,-0.077482663094997406,
4.8150000000000004,-0.079285703599452972,
4.8174999999999999,-0.081040665507316589,
4.8200000000000003,-0.08274754136800766,
4.8224999999999998,-0.085896849632263184,
4.8250000000000002,-0.087219081819057465,
4.8274999999999997,-0.088324949145317078,
4.8300000000000001,-0.089142322540283203,
4.8324999999999996,-0.089983746409416199,
4.835,-0.090055868029594421,
4.8375000000000004,-0.089959703385829926,
4.8399999999999999,-0.089791417121887207,
4.8425000000000002,-0.089382730424404144,
4.8449999999999998,-0.089262530207633972,
4.8475000000000001,-0.089214444160461426,
4.8499999999999996,-0.089238487184047699,
4.8525,-0.089502930641174316,
4.8550000000000004,-0.089695259928703308,
4.8574999999999999,-0.089911624789237976,
4.8600000000000003,-0.09015202522277832,
4.8624999999999998,-0.090656876564025879,
4.8650000000000002,-0.090921327471733093,
4.8674999999999997,-0.091209813952445984,
4.8700000000000001,-0.091474257409572601,
4.8724999999999996,-0.09193103015422821,
4.875,-0.092075273394584656,
4.8775000000000004,-0.092099308967590332,
4.8799999999999999,-0.092027187347412109,
4.8825000000000003,-0.091474257409572601,
4.8849999999999998,-0.091041527688503265,
4.8875000000000002,-0.090512633323669434,
4.8899999999999997,-0.089959703385829926,
4.8925000000000001,-0.088950000703334808,
4.8949999999999996,-0.088565349578857422,
4.8975,-0.088300906121730804,
4.9000000000000004,-0.08810858428478241,
4.9024999999999999,-0.087940298020839691,
4.9050000000000002,-0.087844133377075195,
4.9074999999999998,-0.087675854563713074,
4.9100000000000001,-0.087387368083000183,
4.9124999999999996,-0.086305543780326843,
4.915,-0.085512205958366394,
4.9175000000000004,-0.0845746248960495,
4.9199999999999999,-0.083588957786560059,
4.9225000000000003,-0.081545516848564148,
4.9249999999999998,-0.080607935786247253,
4.9275000000000002,-0.079766511917114258,
4.9299999999999997,-0.07846832275390625,
4.9325000000000001,-0.077915392816066742,
4.9349999999999996,-0.077410541474819183,
4.9375,-0.076833568513393402,
4.9400000000000004,-0.076136395335197449,
4.9424999999999999,-0.07426123321056366,
4.9450000000000003,-0.073011122643947601,
4.9474999999999998,-0.071592733263969421,
4.9500000000000002,-0.068467460572719574,
4.9524999999999997,-0.066904827952384949,
4.9550000000000001,-0.065486431121826172,
4.9574999999999996,-0.06428440660238266,
4.96,-0.062793895602226257,
4.9625000000000004,-0.062553487718105316,
4.9649999999999999,-0.062601566314697266,
4.9675000000000002,-0.062914095818996429,
4.9699999999999998,-0.063418947160243988,
4.9725000000000001,-0.064572893083095551,
4.9749999999999996,-0.065077744424343109,
4.9775,-0.065414309501647949,
4.9800000000000004,-0.065510474145412445,
4.9824999999999999,-0.065270066261291504,
4.9850000000000003,-0.064861379563808441,
4.9874999999999998,-0.064332485198974609,
4.9900000000000002,-0.063226625323295593,
4.9924999999999997,-0.062745809555053711,
4.9950000000000001,-0.062361162155866623,
4.9974999999999996,-0.06212075799703598,
5,-0.062024593353271484,71.00592041015625
5.0025000000000004,-0.062144797295331955,
5.0049999999999999,-0.062313079833984375,
5.0075000000000003,-0.062505409121513367,
5.0099999999999998,-0.062841974198818207,
5.0125000000000002,-0.062938138842582703,
5.0149999999999997,-0.062986217439174652,
5.0175000000000001,-0.062986217439174652,
5.0199999999999996,-0.06286601722240448,
5.0225,-0.062817931175231934,
5.0250000000000004,-0.062769852578639984,
5.0274999999999999,-0.062769852578639984,
5.0300000000000002,-0.062914095818996429,
5.0324999999999998,-0.063034296035766602,
5.0350000000000001,-0.06320258229970932,
5.0374999999999996,-0.063394904136657715,
5.04,-0.063707433640956879,
5.0425000000000004,-0.063803598284721375,
5.0449999999999999,-0.063827633857727051,
5.0475000000000003,-0.063707433640956879,
5.0499999999999998,-0.063058339059352875,
5.0525000000000002,-0.06245732307434082,
5.0549999999999997,-0.061639945954084396,
5.0575000000000001,-0.060630243271589279,
5.0599999999999996,-0.058033864945173264,
5.0625,-0.056495271623134613,
5.0650000000000004,-0.054908595979213715,
5.0674999999999999,-0.053297877311706543,
5.0700000000000003,-0.050461094826459885,
5.0724999999999998,-0.049379270523786545,
5.0750000000000002,-0.048634015023708344,
5.0774999999999997,-0.048297446221113205,
5.0800000000000001,-0.048874419182538986,
5.0824999999999996,-0.049739878624677658,
5.085,-0.050869785249233246,
5.0875000000000004,-0.05214393138885498,
5.0899999999999999,-0.054235458374023438,
5.0925000000000002,-0.054620109498500824,
5.0949999999999998,-0.054235458374023438,
5.0975000000000001,-0.052913229912519455,
5.0999999999999996,-0.046855013817548752,
5.1025,-0.042119026184082031,
5.1050000000000004,-0.036397378891706467,
5.1074999999999999,-0.029954513534903526,
5.1100000000000003,-0.016395648941397667,
5.1124999999999998,-0.010169148445129395,
5.1150000000000002,-0.0049042701721191406,
5.1174999999999997,-0.00098566222004592419,
5.1200000000000001,0.0012981891632080078,
5.1224999999999996,0.00048081082059070468,
5.125,-0.002524256706237793,
5.1275000000000004,-0.0070198378525674343,
5.1299999999999999,-0.012645324692130089,
5.1325000000000003,-0.025891661643981934,
5.1349999999999998,-0.032719176262617111,
5.1375000000000002,-0.039306282997131348,
5.1399999999999997,-0.050821702927350998,
5.1425000000000001,-0.055533647537231445,
5.1449999999999996,-0.059572458267211914,
5.1475,-0.062962174415588379,
5.1500000000000004,-0.065823003649711609,
5.1524999999999999,-0.070342622697353363,
5.1550000000000002,-0.072169706225395203,
5.1574999999999998,-0.073708295822143555,
5.1600000000000001,-0.075607500970363617,
5.1624999999999996,-0.075703665614128113,
5.165,-0.075030528008937836,
5.1675000000000004,-0.073443852365016937,
5.1699999999999999,-0.067794322967529297,
5.1725000000000003,-0.064188241958618164,
5.1749999999999998,-0.060702364891767502,
5.1775000000000002,-0.058057904243469238,
5.1799999999999997,-0.058803163468837738,
5.1825000000000001,-0.063971877098083496,
5.1849999999999996,-0.073275566101074219,
5.1875,-0.087050795555114746,
5.1900000000000004,-0.12707829475402832,
5.1924999999999999,-0.15147945284843445,
5.1950000000000003,-0.17664989829063416,
5.1974999999999998,-0.20032982528209686,
5.2000000000000002,-0.2323758602142334,
5.2024999999999997,-0.23497223854064941,
5.2050000000000001,-0.22489926218986511,
5.2074999999999996,-0.1998249739408493,
5.21,-0.098638340830802917,
5.2125000000000004,-0.021973054856061935,
5.2149999999999999,0.070510908961296082,
5.2175000000000002,0.17597675323486328,
5.2199999999999998,0.40782374143600464,
5.2225000000000001,0.5223768949508667,
5.2249999999999996,0.62695324420928955,
5.2275,0.7145569920539856,
5.2300000000000004,0.81432521343231201,
5.2324999999999999,0.81793129444122314,
5.2350000000000003,0.78838551044464111,
5.2374999999999998,0.72701001167297363,
5.2400000000000002,0.52627146244049072,
5.2424999999999997,0.40046733617782593,
5.2450000000000001,0.26882132887840271,
5.2474999999999996,0.13989190757274628,
5.25,-0.080103084444999695,
5.2525000000000004,-0.1605667769908905,
5.2549999999999999,-0.21792750060558319,
5.2575000000000003,-0.25240164995193481,
5.2599999999999998,-0.26302754878997803,
5.2625000000000002,-0.24742524325847626,
5.2649999999999997,-0.22415399551391602,
5.2675000000000001,-0.19761323928833008,
5.2699999999999996,-0.17143309116363525,
5.2725,-0.12941023707389832,
5.2750000000000004,-0.1154426783323288,
5.2774999999999999,-0.10589858144521713,
5.2800000000000002,-0.096162162721157074,
5.2824999999999998,-0.093661949038505554,
5.2850000000000001,-0.091378092765808105,
5.2874999999999996,-0.08873363584280014,
5.29,-0.081425309181213379,
5.2925000000000004,-0.076977811753749847,
5.2949999999999999,-0.072410106658935547,
5.2975000000000003,-0.068034730851650238,
5.2999999999999998,-0.060774486511945724,
5.3025000000000002,-0.058105986565351486,
5.3049999999999997,-0.056014459580183029,
5.3075000000000001,-0.054379701614379883,
5.3099999999999996,-0.051831405609846115,
5.3125,-0.05060533806681633,
5.3150000000000004,-0.049307148903608322,
5.3174999999999999,-0.047888755798339844,
5.3200000000000003,-0.044595204293727875,
5.3224999999999998,-0.042792163789272308,
5.3250000000000002,-0.040941040962934494,
5.3274999999999997,-0.039065878838300705,
5.3300000000000001,-0.035243432968854904,
5.3324999999999996,-0.033296149224042892,
5.335,-0.031324826180934906,
5.3375000000000004,-0.029305418953299522,
5.3399999999999999,-0.025098323822021484,
5.3425000000000002,-0.022934675216674805,
5.3449999999999998,-0.02074698731303215,
5.3475000000000001,-0.018559297546744347,
5.3499999999999996,-0.014376243576407433,
5.3525,-0.012356838211417198,
5.3550000000000004,-0.010409554466605186,
5.3574999999999999,-0.0085103511810302734,
5.3600000000000003,-0.004567702766507864,
5.3624999999999998,-0.0024040541611611843,
5.3650000000000002,-4.8081081331474707e-05,
5.3674999999999997,0.0025482974015176296,
5.3700000000000001,0.0085103511810302734,
5.3724999999999996,0.01185198687016964,
5.375,0.015337864868342876,
5.3775000000000004,0.018943946808576584,
5.3799999999999999,0.02632439136505127,
5.3825000000000003,0.030026635155081749,
5.3849999999999998,0.033752918243408203,
5.3875000000000002,0.037527285516262054,
5.3899999999999997,0.045484703034162521,
5.3925000000000001,0.049787960946559906,
5.3949999999999996,0.054355662316083908,
5.3975,0.059235893189907074,
5.4000000000000004,0.069909892976284027,
5.4024999999999999,0.075655579566955566,
5.4050000000000002,0.081569552421569824,
5.4074999999999998,0.087603732943534851,
5.4100000000000001,0.099744200706481934,
5.4124999999999996,0.10573029518127441,
5.415,0.11154811084270477,
5.4175000000000004,0.11719763278961182,
5.4199999999999999,0.12772738933563232,
5.4225000000000003,0.13253550231456757,
5.4249999999999998,0.13700704276561737,
5.4275000000000002,0.14111797511577606,
5.4299999999999997,0.14804165065288544,
5.4325000000000001,0.15085439383983612,
5.4349999999999996,0.15318632125854492,
5.4375,0.15506148338317871,
5.4400000000000004,0.15739342570304871,
5.4424999999999999,0.15780210494995117,
5.4450000000000003,0.15770594775676727,
5.4474999999999998,0.15696069598197937,
5.4500000000000002,0.15328249335289001,
5.4524999999999997,0.15008509159088135,
5.4550000000000001,0.14580588042736053,
5.4574999999999996,0.14027655124664307,
5.46,0.12527525424957275,
5.4625000000000004,0.11575520038604736,
5.4649999999999999,0.10496100038290024,
5.4675000000000002,0.093084976077079773,
5.4699999999999998,0.066880784928798676,
5.4725000000000001,0.053129594773054123,
5.4749999999999996,0.039330326020717621,
5.4775,0.025747418403625488,
5.4800000000000004,9.6162162662949413e-05,
5.4824999999999999,-0.011659662239253521,
5.4850000000000003,-0.022646188735961914,
5.4874999999999998,-0.032839380204677582,
5.4900000000000002,-0.051038067787885666,
5.4924999999999997,-0.059163771569728851,
5.4950000000000001,-0.066712498664855957,
5.4974999999999996,-0.073732338845729828,
5.5,-0.086161300539970398,
5.5025000000000004,-0.091594457626342773,
5.5049999999999999,-0.096474692225456238,
5.5075000000000003,-0.1008019894361496,
5.5099999999999998,-0.10789394378662109,
5.5125000000000002,-0.11070668697357178,
5.5149999999999997,-0.11313478648662567,
5.5175000000000001,-0.11520227044820786,
5.5199999999999996,-0.11859198659658432,
5.5225,-0.11998634040355682,
5.5250000000000004,-0.12123644351959229,
5.5274999999999999,-0.1223423108458519,
5.5300000000000002,-0.12414535135030746,
5.5324999999999998,-0.12484252452850342,
5.5350000000000001,-0.12539546191692352,
5.5374999999999996,-0.12578010559082031,
5.54,-0.1260685920715332,
5.5425000000000004,-0.1259724348783493,
5.5449999999999999,-0.12575607001781464,
5.5475000000000003,-0.1254194974899292,
5.5499999999999998,-0.12455403804779053,
5.5525000000000002,-0.12414535135030746,
5.5549999999999997,-0.1238328218460083,
5.5575000000000001,-0.12368857860565186,
5.5599999999999996,-0.12400110810995102,
5.5625,-0.12450595945119858,
5.5650000000000004,-0.12517909705638885,
5.5674999999999999,-0.12599647045135498,
5.5700000000000003,-0.1276552677154541,
5.5724999999999998,-0.12832841277122498,
5.5750000000000002,-0.12880921363830566,
5.5774999999999997,-0.1290496289730072,
5.5800000000000001,-0.12880921363830566,
5.5824999999999996,-0.12844860553741455,
5.585,-0.12806396186351776,
5.5875000000000004,-0.12770335376262665,
5.5899999999999999,-0.12748698890209198,
5.5925000000000002,-0.12770335376262665,
5.5949999999999998,-0.12816011905670166,
5.5975000000000001,-0.12876114249229431,
5.5999999999999996,-0.13003528118133545,
5.6025,-0.13046801090240479,
5.6050000000000004,-0.13066034018993378,
5.6074999999999999,-0.13049206137657166,
5.6100000000000003,-0.12909770011901855,
5.6124999999999998,-0.12791971862316132,
5.6150000000000002,-0.12657344341278076,
5.6174999999999997,-0.12510697543621063,
5.6200000000000001,-0.12241443246603012,
5.6224999999999996,-0.12130856513977051,
5.625,-0.12046714872121811,
5.6275000000000004,-0.11981805413961411,
5.6299999999999999,-0.11907279491424561,
5.6325000000000003,-0.11880835145711899,
5.6349999999999998,-0.11847178637981415,
5.6375000000000002,-0.11799097061157227,
5.6399999999999997,-0.11642833799123764,
5.6425000000000001,-0.11527439206838608,
5.6449999999999996,-0.11390408128499985,
5.6475,-0.1123654842376709,
5.6500000000000004,-0.10904788970947266,
5.6524999999999999,-0.10743717849254608,
5.6550000000000002,-0.10597070306539536,
5.6574999999999998,-0.1047205924987793,
5.6600000000000001,-0.10291755199432373,
5.6624999999999996,-0.10236462205648422,
5.665,-0.10202805697917938,
5.6675000000000004,-0.10185977071523666,
5.6699999999999999,-0.10178764909505844,
5.6725000000000003,-0.10178764909505844,
5.6749999999999998,-0.10176360607147217,
5.6775000000000002,-0.10169148445129395,
5.6799999999999997,-0.10130684077739716,
5.6825000000000001,-0.10097026824951172,
5.6849999999999996,-0.10058562457561493,
5.6875,-0.10012885183095932,
5.6900000000000004,-0.099143192172050476,
5.6924999999999999,-0.098686419427394867,
5.6950000000000003,-0.098277732729911804,
5.6974999999999998,-0.09796520322561264,
5.7000000000000002,-0.097748838365077972,
5.7024999999999997,-0.097869038581848145,
5.7050000000000001,-0.098133489489555359,
5.7074999999999996,-0.098518133163452148,
5.71,-0.099479757249355316,
5.7125000000000004,-0.099984608590602875,
5.7149999999999999,-0.10044138133525848,
5.7175000000000002,-0.1008019894361496,
5.7199999999999998,-0.10113855451345444,
5.7225000000000001,-0.10111451148986816,
5.7249999999999996,-0.10099431127309799,
5.7275,-0.1008019894361496,
5.7300000000000004,-0.10036925971508026,
5.7324999999999999,-0.10022501647472382,
5.7350000000000003,-0.10015289485454559,
5.7374999999999998,-0.10015289485454559,
5.7400000000000002,-0.10034521669149399,
5.7424999999999997,-0.10039329528808594,
5.7450000000000001,-0.10036925971508026,
5.7474999999999996,-0.10015289485454559,
5.75,-0.098878741264343262,
5.7525000000000004,-0.097772881388664246,
5.7549999999999999,-0.096330448985099792,
5.7575000000000003,-0.094575487077236176,
5.7599999999999998,-0.090416476130485535,
5.7625000000000002,-0.088180705904960632,
5.7649999999999997,-0.08594493567943573,
5.7675000000000001,-0.083805322647094727,
5.7699999999999996,-0.080175206065177917,
5.7725,-0.078828930854797363,
5.7750000000000004,-0.077867314219474792,
5.7774999999999999,-0.077314376831054688,
5.7800000000000002,-0.077530741691589355,
5.7824999999999998,-0.078276000916957855,
5.7850000000000001,-0.079381868243217468,
5.7874999999999996,-0.080728136003017426,
5.79,-0.083685122430324554,
5.7925000000000004,-0.084887146949768066,
5.7949999999999999,-0.085608363151550293,
5.7975000000000003,-0.085632406175136566,
5.7999999999999998,-0.082795619964599609,
5.8025000000000002,-0.079670354723930359,
5.8049999999999997,-0.075367093086242676,
5.8075000000000001,-0.070030093193054199,
5.8099999999999996,-0.057168405503034592,
5.8125,-0.050388973206281662,
5.8150000000000004,-0.04399418830871582,
5.8174999999999999,-0.038416784256696701,
5.8200000000000003,-0.031324826180934906,
5.8224999999999998,-0.030363202095031738,
5.8250000000000002,-0.031300783157348633,
5.8274999999999997,-0.034089487046003342,
5.8300000000000001,-0.044306717813014984,
5.8324999999999996,-0.051086150109767914,
5.835,-0.058442555367946625,
5.8375000000000004,-0.066039368510246277,
5.8399999999999999,-0.080511771142482758,
5.8425000000000002,-0.086930595338344574,
5.8449999999999998,-0.092604160308837891,
5.8475000000000001,-0.097532473504543304,
5.8499999999999996,-0.10524948686361313,
5.8525,-0.10823051631450653,
5.8550000000000004,-0.11075477302074432,
5.8574999999999999,-0.11284630000591278,
5.8600000000000003,-0.11589944362640381,
5.8624999999999998,-0.11669278144836426,
5.8650000000000002,-0.11690914630889893,
5.8674999999999997,-0.11635621637105942,
5.8700000000000001,-0.11272609233856201,
5.8724999999999996,-0.10974507033824921,
5.875,-0.10628323256969452,
5.8775000000000004,-0.10282139480113983,
5.8799999999999999,-0.098590254783630371,
5.8825000000000003,-0.099503800272941589,
5.8849999999999998,-0.10356664657592773,
5.8875000000000002,-0.11154811084270477,
5.8899999999999997,-0.1406131237745285,
5.8925000000000001,-0.16133606433868408,
5.8949999999999996,-0.18508812785148621,
5.8975,-0.21028260886669159,
5.9000000000000004,-0.25632023811340332,
5.9024999999999999,-0.27177831530570984,
5.9050000000000002,-0.27831733226776123,
5.9074999999999998,-0.27300438284873962,
5.9100000000000001,-0.21723031997680664,
5.9124999999999996,-0.16352376341819763,
5.915,-0.09197910875082016,
5.9175000000000004,-0.0036301217041909695,
5.9199999999999999,0.21251837909221649,
5.9225000000000003,0.33147096633911133,
5.9249999999999998,0.44977447390556335,
5.9275000000000002,0.56052923202514648,
5.9299999999999997,0.7310488224029541,
5.9325000000000001,0.77819228172302246,
5.9349999999999996,0.79381865262985229,
5.9375,0.77593249082565308,
5.9400000000000004,0.64387780427932739,
5.9424999999999999,0.53802728652954102,
5.9450000000000003,0.41462719440460205,
5.9474999999999998,0.28211575746536255,
5.9500000000000002,0.024329027161002159,
5.9524999999999997,-0.085656449198722839,
5.9550000000000001,-0.17556807398796082,
5.9574999999999996,-0.24256905913352966,
5.96,-0.30767083168029785,
5.9625000000000004,-0.3106037974357605,
5.9649999999999999,-0.29920858144760132,
5.9675000000000002,-0.27831733226776123,
5.9699999999999998,-0.22583684325218201,
5.9725000000000001,-0.20126740634441376,
5.9749999999999996,-0.18068870902061462,
5.9775,-0.16489407420158386,
5.9800000000000004,-0.14667133986949921,
5.9824999999999999,-0.14241616427898407,
5.9850000000000003,-0.1398678719997406,
5.9874999999999998,-0.13804078102111816,
5.9900000000000002,-0.13383369147777557,
5.9924999999999997,-0.13094882667064667,
5.9950000000000001,-0.12758314609527588,
5.9974999999999996,-0.12397706508636475,
6,-0.11712551116943359,73.298431396484375
6.0025000000000004,-0.11428873240947723,
6.0049999999999999,-0.11190871894359589,
6.0075000000000003,-0.11000951379537582,
6.0099999999999998,-0.10722081363201141,
6.0125000000000002,-0.1061149463057518,
6.0149999999999997,-0.10510524362325668,
6.0175000000000001,-0.10411958396434784,
6.0199999999999996,-0.10217230021953583,
6.0225,-0.10121067613363266,
6.0250000000000004,-0.10022501647472382,
6.0274999999999999,-0.099215313792228699,
6.0300000000000002,-0.09693145751953125,
6.0324999999999998,-0.09556114673614502,
6.0350000000000001,-0.093974471092224121,
6.0374999999999996,-0.092171430587768555,
6.04,-0.088012419641017914,
6.0425000000000004,-0.085752606391906738,
6.0449999999999999,-0.08349280059337616,
6.0475000000000003,-0.081257030367851257,
6.0499999999999998,-0.077194176614284515,
6.0525000000000002,-0.075415179133415222,
6.0549999999999997,-0.073780417442321777,
6.0575000000000001,-0.072241827845573425,
6.0599999999999996,-0.069188676774501801,
6.0625,-0.067529879510402679,
6.0650000000000004,-0.065726839005947113,
6.0674999999999999,-0.063683390617370605,
6.0700000000000003,-0.058995485305786133,
6.0724999999999998,-0.056351028382778168,
6.0750000000000002,-0.053538285195827484,
6.0774999999999997,-0.050581298768520355,
6.0800000000000001,-0.044330757111310959,
6.0824999999999996,-0.041037201881408691,
6.085,-0.037599407136440277,
6.0875000000000004,-0.034041404724121094,
6.0899999999999999,-0.026348432525992393,
6.0925000000000002,-0.022165378555655479,
6.0949999999999998,-0.017765959724783897,
6.0975000000000001,-0.013150176033377647,
6.0999999999999996,-0.0031973919831216335,
6.1025,0.002067486522719264,
6.1050000000000004,0.0075246891938149929,
6.1074999999999999,0.013150176033377647,
6.1100000000000003,0.024689635261893272,
6.1124999999999998,0.030531486496329308,
6.1150000000000002,0.036397378891706467,
6.1174999999999997,0.042215190827846527,
6.1200000000000001,0.053490202873945236,
6.1224999999999996,0.058875285089015961,
6.125,0.063995920121669769,
6.1275000000000004,0.068828068673610687,
6.1299999999999999,0.077506706118583679,
6.1325000000000003,0.081305108964443207,
6.1349999999999998,0.084670782089233398,
6.1375000000000002,0.087603732943534851,
6.1399999999999997,0.092027187347412109,
6.1425000000000001,0.09339749813079834,
6.1449999999999996,0.09414275735616684,
6.1475,0.094166800379753113,
6.1500000000000004,0.091714665293693542,
6.1524999999999999,0.08907020092010498,
6.1550000000000002,0.085343919694423676,
6.1574999999999998,0.080511771142482758,
6.1600000000000001,0.067361593246459961,
6.1624999999999996,0.059115689247846603,
6.165,0.049787960946559906,
6.1675000000000004,0.039546690881252289,
6.1699999999999999,0.01675625704228878,
6.1725000000000003,0.004519621841609478,
6.1749999999999998,-0.0080535812303423882,
6.1775000000000002,-0.020843148231506348,
6.1799999999999997,-0.046470366418361664,
6.1825000000000001,-0.059091649949550629,
6.1849999999999996,-0.07140040397644043,
6.1875,-0.083348557353019714,
6.1900000000000004,-0.10585050284862518,
6.1924999999999999,-0.11630813777446747,
6.1950000000000003,-0.12614071369171143,
6.1974999999999998,-0.13534824550151825,
6.2000000000000002,-0.15179197490215302,
6.2024999999999997,-0.15900413691997528,
6.2050000000000001,-0.16554316878318787,
6.2074999999999996,-0.17143309116363525,
6.21,-0.1813618391752243,
6.2125000000000004,-0.18544873595237732,
6.2149999999999999,-0.18900673091411591,
6.2175000000000002,-0.19203583896160126,
6.2199999999999998,-0.19672374427318573,
6.2225000000000001,-0.19845466315746307,
6.2249999999999996,-0.19980093836784363,
6.2275,-0.20081064105033875,
6.2300000000000004,-0.20210883021354675,
6.2324999999999999,-0.20249347388744354,
6.2350000000000003,-0.20278196036815643,
6.2374999999999998,-0.20304641127586365,
6.2400000000000002,-0.20362338423728943,
6.2424999999999997,-0.20398399233818054,
6.2450000000000001,-0.20441672205924988,
6.2474999999999996,-0.20484945178031921,
6.25,-0.20581106841564178,
6.2525000000000004,-0.2062678337097168,
6.2549999999999999,-0.20670056343078613,
6.2575000000000003,-0.20713329315185547,
6.2599999999999998,-0.20795068144798279,
6.2625000000000002,-0.20835936069488525,
6.2649999999999997,-0.20881614089012146,
6.2675000000000001,-0.2092488706111908,
6.2699999999999996,-0.21011433005332947,
6.2725,-0.21049897372722626,
6.2750000000000004,-0.21081149578094482,
6.2774999999999999,-0.21105191111564636,
6.2800000000000002,-0.21124422550201416,
6.2824999999999998,-0.21126827597618103,
6.2850000000000001,-0.21122018992900848,
6.2874999999999996,-0.21117210388183594,
6.29,-0.21112403273582458,
6.2925000000000004,-0.21112403273582458,
6.2949999999999999,-0.21114806830883026,
6.2975000000000003,-0.21114806830883026,
6.2999999999999998,-0.21093170344829559,
6.3025000000000002,-0.21066725254058838,
6.3049999999999997,-0.21025857329368591,
6.3075000000000001,-0.20970563590526581,
6.3099999999999996,-0.20821511745452881,
6.3125,-0.20732562243938446,
6.3150000000000004,-0.20646016299724579,
6.3174999999999999,-0.20561873912811279,
6.3200000000000003,-0.20427247881889343,
6.3224999999999998,-0.20386378467082977,
6.3250000000000002,-0.2036474198102951,
6.3274999999999997,-0.20362338423728943,
6.3300000000000001,-0.20403206348419189,
6.3324999999999996,-0.20439267158508301,
6.335,-0.20475327968597412,
6.3375000000000004,-0.20504176616668701,
6.3399999999999999,-0.20518600940704346,
6.3425000000000002,-0.20489752292633057,
6.3449999999999998,-0.20434460043907166,
6.3475000000000001,-0.20355126261711121,
6.3499999999999996,-0.20133952796459198,
6.3525,-0.20011346042156219,
6.3550000000000004,-0.19891142845153809,
6.3574999999999999,-0.19785365462303162,
6.3600000000000003,-0.19645929336547852,
6.3624999999999998,-0.1961948573589325,
6.3650000000000002,-0.19621889293193817,
6.3674999999999997,-0.19645929336547852,
6.3700000000000001,-0.19727668166160583,
6.3724999999999996,-0.1976853609085083,
6.375,-0.19799789786338806,
6.3775000000000004,-0.19816617667675018,
6.3799999999999999,-0.19792577624320984,
6.3825000000000003,-0.1975892037153244,
6.3849999999999998,-0.19715647399425507,
6.3875000000000002,-0.19669970870018005,
6.3899999999999997,-0.19595444202423096,
6.3925000000000001,-0.19573807716369629,
6.3949999999999996,-0.19566595554351807,
6.3975,-0.19569000601768494,
6.4000000000000004,-0.19597849249839783,
6.4024999999999999,-0.1960986852645874,
6.4050000000000002,-0.19614677131175995,
6.4074999999999998,-0.19605061411857605,
6.4100000000000001,-0.19537746906280518,
6.4124999999999996,-0.19482454657554626,
6.415,-0.19415140151977539,
6.4175000000000004,-0.19343018531799316,
6.4199999999999999,-0.19213199615478516,
6.4225000000000003,-0.1916271448135376,
6.4249999999999998,-0.19131462275981903,
6.4275000000000002,-0.19117037951946259,
6.4299999999999997,-0.19138674437999725,
6.4325000000000001,-0.19174735248088837,
6.4349999999999996,-0.19220411777496338,
6.4375,-0.19275705516338348,
6.4400000000000004,-0.19393503665924072,
6.4424999999999999,-0.19446393847465515,
6.4450000000000003,-0.19489666819572449,
6.4474999999999998,-0.19518515467643738,
6.4500000000000002,-0.19511303305625916,
6.4524999999999997,-0.19465625286102295,
6.4550000000000001,-0.19388696551322937,
6.4574999999999996,-0.19282917678356171,
6.46,-0.18987219035625458,
6.4625000000000004,-0.18809318542480469,
6.4649999999999999,-0.1862180233001709,
6.4675000000000002,-0.18429479002952576,
6.4699999999999998,-0.18066465854644775,
6.4725000000000001,-0.17910203337669373,
6.4749999999999996,-0.17775575816631317,
6.4775,-0.17672201991081238,
6.4800000000000004,-0.17566423118114471,
6.4824999999999999,-0.17571231722831726,
6.4850000000000003,-0.17616908252239227,
6.4874999999999998,-0.17701050639152527,
6.4900000000000002,-0.17967900633811951,
6.4924999999999997,-0.18126568198204041,
6.4950000000000001,-0.18278023600578308,
6.4974999999999996,-0.183982253074646,
6.5,-0.18441498279571533,
6.5025000000000004,-0.18316487967967987,
6.5049999999999999,-0.18073678016662598,
6.5075000000000003,-0.17701050639152527,
6.5099999999999998,-0.16619226336479187,
6.5125000000000002,-0.15958110988140106,
6.5149999999999997,-0.15270552039146423,
6.5175000000000001,-0.14599820971488953,
6.5199999999999996,-0.13515591621398926,
6.5225,-0.13186237215995789,
6.5250000000000004,-0.13041993975639343,
6.5274999999999999,-0.13092479109764099,
6.5300000000000002,-0.13758401572704315,
6.5324999999999998,-0.14325758814811707,
6.5350000000000001,-0.15006105601787567,
6.5374999999999996,-0.15753766894340515,
6.54,-0.17282745242118835,
6.5425000000000004,-0.17994344234466553,
6.5449999999999999,-0.18636226654052734,
6.5475000000000003,-0.19193968176841736,
6.5499999999999998,-0.2006663978099823,
6.5525000000000002,-0.203935906291008,
6.5549999999999997,-0.20670056343078613,
6.5575000000000001,-0.20910462737083435,
6.5599999999999996,-0.21314343810081482,
6.5625,-0.21482627093791962,
6.5650000000000004,-0.21622061729431152,
6.5674999999999999,-0.21715819835662842,
6.5700000000000003,-0.21691779792308807,
6.5724999999999998,-0.21542727947235107,
6.5750000000000002,-0.21299919486045837,
6.5774999999999997,-0.20977775752544403,
6.5800000000000001,-0.20266175270080566,
6.5824999999999996,-0.20011346042156219,
6.585,-0.19941627979278564,
6.5875000000000004,-0.20148377120494843,
6.5899999999999999,-0.21723031997680664,
6.5925000000000002,-0.23184697329998016,
6.5949999999999998,-0.25088709592819214,
6.5975000000000001,-0.27362942695617676,
6.5999999999999996,-0.32440304756164551,
6.6025,-0.34815511107444763,
6.6050000000000004,-0.36729139089584351,
6.6074999999999999,-0.37878274917602539,
6.6100000000000003,-0.36719521880149841,
6.6124999999999998,-0.33906778693199158,
6.6150000000000002,-0.2936311662197113,
6.6174999999999997,-0.23023626208305359,
6.6200000000000001,-0.052696865051984787,
6.6224999999999996,0.056567393243312836,
6.625,0.17395734786987305,
6.6275000000000004,0.29379945993423462,
6.6299999999999999,0.51398676633834839,
6.6325000000000003,0.60019612312316895,
6.6349999999999998,0.66178798675537109,
6.6375000000000002,0.69371384382247925,
6.6399999999999997,0.65835022926330566,
6.6425000000000001,0.5919262170791626,
6.6449999999999996,0.49778342247009277,
6.6475,0.3822205662727356,
6.6500000000000004,0.11928915977478027,
6.6524999999999999,-0.010722081176936626,
6.6550000000000002,-0.12912175059318542,
6.6574999999999998,-0.22970736026763916,
6.6600000000000001,-0.36351701617240906,
6.6624999999999996,-0.39551496505737305,
6.665,-0.40686210989952087,
6.6675000000000004,-0.40147703886032104,
6.6699999999999999,-0.35933396220207214,
6.6725000000000003,-0.33180755376815796,
6.6749999999999998,-0.30502638220787048,
6.6775000000000002,-0.2814185619354248,
6.6799999999999997,-0.24821858108043671,
6.6825000000000001,-0.23848216235637665,
6.6849999999999996,-0.2321835458278656,
6.6875,-0.22814473509788513,
6.6900000000000004,-0.22268752753734589,
6.6924999999999999,-0.2197786271572113,
6.6950000000000003,-0.21634082496166229,
6.6974999999999998,-0.21239817142486572,
6.7000000000000002,-0.20388782024383545,
6.7024999999999997,-0.19989709556102753,
6.7050000000000001,-0.19643525779247284,
6.7074999999999996,-0.19355039298534393,
6.71,-0.18960773944854736,
6.7125000000000004,-0.18828551471233368,
6.7149999999999999,-0.18717965483665466,
6.7175000000000002,-0.18616995215415955,
6.7199999999999998,-0.18383800983428955,
6.7225000000000001,-0.18237154185771942,
6.7249999999999996,-0.18064062297344208,
6.7275,-0.17864525318145752,
6.7300000000000004,-0.17400543391704559,
6.7324999999999999,-0.17140905559062958,
6.7350000000000003,-0.16874055564403534,
6.7374999999999998,-0.16599993407726288,
6.7400000000000002,-0.16059081256389618,
6.7424999999999997,-0.15801846981048584,
6.7450000000000001,-0.15551826357841492,
6.7474999999999996,-0.15316228568553925,
6.75,-0.14873883128166199,
6.7525000000000004,-0.14664730429649353,
6.7549999999999999,-0.14460384845733643,
6.7575000000000003,-0.14256040751934052,
6.7599999999999998,-0.13844947516918182,
6.7625000000000002,-0.13630986213684082,
6.7649999999999997,-0.13407409191131592,
6.7675000000000001,-0.13171812891960144,
6.7699999999999996,-0.12654940783977509,
6.7725,-0.12366454303264618,
6.7750000000000004,-0.12053927034139633,
6.7774999999999999,-0.11722167581319809,
6.7800000000000002,-0.10991334915161133,
6.7824999999999998,-0.1060187816619873,
6.7850000000000001,-0.10197997093200684,
6.7874999999999996,-0.097869038581848145,
6.79,-0.089502930641174316,
6.7925000000000004,-0.085295841097831726,
6.7949999999999999,-0.081064701080322266,
6.7975000000000003,-0.076785489916801453,
6.7999999999999998,-0.067890487611293793,
6.8025000000000002,-0.063154503703117371,
6.8049999999999997,-0.058178108185529709,
6.8075000000000001,-0.05288919061422348,
6.8099999999999996,-0.04137377068400383,
6.8125,-0.035243432968854904,
6.8150000000000004,-0.028920769691467285,
6.8174999999999999,-0.022550027817487717,
6.8200000000000003,-0.0100008649751544,
6.8224999999999998,-0.0040868921205401421,
6.8250000000000002,0.0014905135612934828,
6.8274999999999997,0.006659229751676321,
6.8300000000000001,0.015698473900556564,
6.8324999999999996,0.019593041390180588,
6.835,0.023151040077209473,
6.8375000000000004,0.026372473686933517,
6.8399999999999999,0.032094120979309082,
6.8425000000000002,0.0345943383872509,
6.8449999999999998,0.036830108612775803,
6.8475000000000001,0.038681231439113617,
6.8499999999999996,0.040820837020874023,
6.8525,0.040796797722578049,
6.8550000000000004,0.039811134338378906,
6.8574999999999999,0.037695568054914474,
6.8600000000000003,0.029714107513427734,
6.8624999999999998,0.023728013038635254,
6.8650000000000002,0.016419690102338791,
6.8674999999999997,0.0079093379899859428,
6.8700000000000001,-0.012092391960322857,
6.8724999999999996,-0.023223161697387695,
6.875,-0.034810703247785568,
6.8775000000000004,-0.046710770577192307,
6.8799999999999999,-0.070655152201652527,
6.8825000000000003,-0.082507133483886719,
6.8849999999999998,-0.094190835952758789,
6.8875000000000002,-0.10561009496450424,
6.8899999999999997,-0.12758314609527588,
6.8925000000000001,-0.13806483149528503,
6.8949999999999996,-0.14811377227306366,
6.8975,-0.1576819121837616,
6.9000000000000004,-0.17506322264671326,
6.9024999999999999,-0.18275618553161621,
6.9050000000000002,-0.18970391154289246,
6.9074999999999998,-0.19593040645122528,
6.9100000000000001,-0.20619571208953857,
6.9124999999999996,-0.21035473048686981,
6.915,-0.21396081149578094,
6.9175000000000004,-0.21713416278362274,
6.9199999999999999,-0.22235095500946045,
6.9225000000000003,-0.22449056804180145,
6.9249999999999998,-0.22641381621360779,
6.9275000000000002,-0.22804856300354004,
6.9299999999999997,-0.2305968701839447,
6.9325000000000001,-0.23146232962608337,
6.9349999999999996,-0.23208737373352051,
6.9375,-0.23249606788158417,
6.9400000000000004,-0.23271243274211884,
6.9424999999999999,-0.23259222507476807,
6.9450000000000003,-0.23239991068840027,
6.9474999999999998,-0.2321835458278656,
6.9500000000000002,-0.23179888725280762,
6.9524999999999997,-0.23170273005962372,
6.9550000000000001,-0.23165464401245117,
6.9574999999999996,-0.23172676563262939,
6.96,-0.23201525211334229,
6.9625000000000004,-0.23220758140087128,
6.9649999999999999,-0.23242394626140594,
6.9675000000000002,-0.23256818950176239,
6.9699999999999998,-0.23264031112194061,
6.9725000000000001,-0.23249606788158417,
6.9749999999999996,-0.23225566744804382,
6.9775,-0.23189505934715271,
6.9800000000000004,-0.23093342781066895,
6.9824999999999999,-0.23038050532341003,
6.9850000000000003,-0.22982756793498993,
6.9874999999999998,-0.22927463054656982,
6.9900000000000002,-0.22824089229106903,
6.9924999999999997,-0.22778412699699402,
6.9950000000000001,-0.22735139727592468,
6.9974999999999996,-0.22694270312786102,
7,-0.22610127925872803,83.665336608886719
7.0025000000000004,-0.22564451396465302,
7.0049999999999999,-0.22513966262340546,
7.0075000000000003,-0.22458672523498535,
7.0099999999999998,-0.22333662211894989,
7.0125000000000002,-0.22263944149017334,
7.0149999999999997,-0.22191822528839111,
7.0175000000000001,-0.22117297351360321,
7.0199999999999996,-0.21968245506286621,
7.0225,-0.21893720328807831,
7.0250000000000004,-0.21819195151329041,
7.0274999999999999,-0.21744668483734131,
7.0300000000000002,-0.21586000919342041,
7.0324999999999998,-0.21497051417827606,
7.0350000000000001,-0.21403293311595917,
7.0374999999999996,-0.21299919486045837,
7.04,-0.21069130301475525,
7.0425000000000004,-0.20944118499755859,
7.0449999999999999,-0.20816704630851746,
7.0475000000000003,-0.20686885714530945,
7.0499999999999998,-0.20436863601207733,
7.0525000000000002,-0.20323872566223145,
7.0549999999999997,-0.20220498740673065,
7.0575000000000001,-0.20129144191741943,
7.0599999999999996,-0.19989709556102753,
7.0625,-0.19939224421977997,
7.0650000000000004,-0.19898355007171631,
7.0674999999999999,-0.1986229419708252,
7.0700000000000003,-0.19804596900939941,
7.0724999999999998,-0.19775748252868652,
7.0750000000000002,-0.19742092490196228,
7.0774999999999997,-0.19706031680107117,
7.0800000000000001,-0.19612273573875427,
7.0824999999999996,-0.19556979835033417,
7.085,-0.19494473934173584,
7.0875000000000004,-0.19424757361412048,
7.0899999999999999,-0.19278109073638916,
7.0925000000000002,-0.19201180338859558,
7.0949999999999998,-0.19124250113964081,
7.0975000000000001,-0.19052128493785858,
7.0999999999999996,-0.18922309577465057,
7.1025,-0.18869420886039734,
7.1050000000000004,-0.188261479139328,
7.1074999999999999,-0.18792490661144257,
7.1100000000000003,-0.18744409084320068,
7.1124999999999998,-0.18732389807701111,
7.1150000000000002,-0.18725177645683289,
7.1174999999999997,-0.18722772598266602,
7.1200000000000001,-0.18717965483665466,
7.1224999999999996,-0.18713156878948212,
7.125,-0.18703541159629822,
7.1275000000000004,-0.1868671178817749,
7.1299999999999999,-0.18614590167999268,
7.1325000000000003,-0.18559297919273376,
7.1349999999999998,-0.18484771251678467,
7.1375000000000002,-0.18393418192863464,
7.1399999999999997,-0.18167436122894287,
7.1425000000000001,-0.18030405044555664,
7.1449999999999996,-0.17883758246898651,
7.1475,-0.17725090682506561,
7.1500000000000004,-0.17378906905651093,
7.1524999999999999,-0.17193794250488281,
7.1550000000000002,-0.17006278038024902,
7.1574999999999998,-0.1682116687297821,
7.1600000000000001,-0.16487002372741699,
7.1624999999999996,-0.16354779899120331,
7.165,-0.16258618235588074,
7.1675000000000004,-0.16203324496746063,
7.1699999999999999,-0.1622496098279953,
7.1725000000000003,-0.1628987044095993,
7.1749999999999998,-0.1637401282787323,
7.1775000000000002,-0.16453346610069275,
7.1799999999999997,-0.16491810977458954,
7.1825000000000001,-0.16398052871227264,
7.1849999999999996,-0.16200920939445496,
7.1875,-0.15883585810661316,
7.1900000000000004,-0.14914751052856445,
7.1924999999999999,-0.14301717281341553,
7.1950000000000003,-0.13645410537719727,
7.1974999999999998,-0.12996315956115723,
7.2000000000000002,-0.11902471631765366,
7.2024999999999997,-0.1154426783323288,
7.2050000000000001,-0.11359155178070068,
7.2074999999999996,-0.11359155178070068,
7.21,-0.11904875934123993,
7.2125000000000004,-0.12409727275371552,
7.2149999999999999,-0.13027569651603699,
7.2175000000000002,-0.13717532157897949,
7.2199999999999998,-0.15138328075408936,
7.2225000000000001,-0.15799443423748016,
7.2249999999999996,-0.1639324426651001,
7.2275,-0.16902904212474823,
7.2300000000000004,-0.17660181224346161,
7.2324999999999999,-0.1792222261428833,
7.2350000000000003,-0.18126568198204041,
7.2374999999999998,-0.18290042877197266,
7.2400000000000002,-0.18540064990520477,
7.2424999999999997,-0.18643438816070557,
7.2450000000000001,-0.18727581202983856,
7.2474999999999996,-0.1878046989440918,
7.25,-0.18737196922302246,
7.2525000000000004,-0.18607378005981445,
7.2549999999999999,-0.183982253074646,
7.2575000000000003,-0.18124163150787354,
7.2599999999999998,-0.17513534426689148,
7.2625000000000002,-0.17304381728172302,
7.2649999999999997,-0.17261108756065369,
7.2675000000000001,-0.17477473616600037,
7.2699999999999996,-0.18987219035625458,
7.2725,-0.20367145538330078,
7.2750000000000004,-0.2215576171875,
7.2774999999999999,-0.24280945956707001,
7.2800000000000002,-0.28952023386955261,
7.2824999999999998,-0.31074804067611694,
7.2850000000000001,-0.32702347636222839,
7.2874999999999996,-0.33536553382873535,
7.29,-0.31678220629692078,
7.2925000000000004,-0.28500062227249146,
7.2949999999999999,-0.2361021488904953,
7.2975000000000003,-0.16970217227935791,
7.2999999999999998,0.010866324417293072,
7.3025000000000002,0.1192651242017746,
7.3049999999999997,0.23362597823143005,
7.3075000000000001,0.34789067506790161,
7.3099999999999996,0.54894173145294189,
7.3125,0.62204897403717041,
7.3150000000000004,0.66892802715301514,
7.3174999999999999,0.68546795845031738,
7.3200000000000003,0.62180858850479126,
7.3224999999999998,0.54478269815444946,
7.3250000000000002,0.44369220733642578,
7.3274999999999997,0.3254368007183075,
7.3300000000000001,0.070486865937709808,
7.3324999999999996,-0.049667757004499435,
7.335,-0.1553499698638916,
7.3375000000000004,-0.24158339202404022,
7.3399999999999999,-0.34637612104415894,
7.3425000000000002,-0.36580085754394531,
7.3449999999999998,-0.36690673232078552,
7.3475000000000001,-0.35392484068870544,
7.3499999999999996,-0.30452153086662292,
7.3525,-0.27673065662384033,
7.3550000000000004,-0.25119960308074951,
7.3574999999999999,-0.22987565398216248,
7.3600000000000003,-0.20220498740673065,
7.3624999999999998,-0.19496878981590271,
7.3650000000000002,-0.19066552817821503,
7.3674999999999997,-0.18809318542480469,
7.3700000000000001,-0.1837899386882782,
7.3724999999999996,-0.18073678016662598,
7.375,-0.17677009105682373,
7.3775000000000004,-0.17201006412506104,
7.3799999999999999,-0.16126394271850586,
7.3825000000000003,-0.15602311491966248,
7.3849999999999998,-0.15121500194072723,
7.3875000000000002,-0.14700791239738464,
7.3899999999999997,-0.14044484496116638,
7.3925000000000001,-0.13792058825492859,
7.3949999999999996,-0.13570885360240936,
7.3975,-0.13366541266441345,
7.4000000000000004,-0.12965063750743866,
7.4024999999999999,-0.12753507494926453,
7.4050000000000002,-0.12534737586975098,
7.4074999999999998,-0.12306352704763412,
7.4100000000000001,-0.11830350011587143,
7.4124999999999996,-0.11587540805339813,
7.415,-0.11347135156393051,
7.4175000000000004,-0.11109133809804916,
7.4199999999999999,-0.10649959743022919,
7.4225000000000003,-0.10431190580129623,
7.4249999999999998,-0.1021963357925415,
7.4275000000000002,-0.10012885183095932,
7.4299999999999997,-0.096041962504386902,
7.4325000000000001,-0.093902349472045898,
7.4349999999999996,-0.091666579246520996,
7.4375,-0.089262530207633972,
7.4400000000000004,-0.083973608911037445,
7.4424999999999999,-0.081088744103908539,
7.4450000000000003,-0.07813175767660141,
7.4474999999999998,-0.075078606605529785,
7.4500000000000002,-0.069044433534145355,
7.4524999999999997,-0.0661114901304245,
7.4550000000000001,-0.063226625323295593,
7.4574999999999996,-0.060317717492580414,
7.46,-0.054259501397609711,
7.4625000000000004,-0.050893824547529221,
7.4649999999999999,-0.04719158262014389,
7.4675000000000002,-0.043080650269985199,
7.4699999999999998,-0.033584635704755783,
7.4725000000000001,-0.028247635811567307,
7.4749999999999996,-0.022574067115783691,
7.4775,-0.016684135422110558,
7.4800000000000004,-0.00461578369140625,
7.4824999999999999,0.0014183919411152601,
7.4850000000000003,0.0073804459534585476,
7.4874999999999998,0.013294419273734093,
7.4900000000000002,0.024954080581665039,
7.4924999999999997,0.030771892517805099,
7.4950000000000001,0.036613743752241135,
7.4974999999999996,0.042479634284973145,
7.5,0.054163336753845215,
7.5025000000000004,0.059909027069807053,
7.5049999999999999,0.065486431121826172,
7.5075000000000003,0.070799395442008972,
7.5099999999999998,0.080439649522304535,
7.5125000000000002,0.084670782089233398,
7.5149999999999997,0.08844514936208725,
7.5175000000000001,0.091810822486877441,
7.5199999999999996,0.097243987023830414,
7.5225,0.099335514008998871,
7.5250000000000004,0.10099431127309799,
7.5274999999999999,0.10217230021953583,
7.5300000000000002,0.10274927318096161,
7.5324999999999998,0.10193189233541489,
7.5350000000000001,0.10022501647472382,
7.5374999999999996,0.097460351884365082,
7.54,0.088421106338500977,
7.5425000000000004,0.082050368189811707,
7.5449999999999999,0.074453555047512054,
7.5475000000000003,0.065750882029533386,
7.5499999999999998,0.045436620712280273,
7.5525000000000002,0.034209690988063812,
7.5549999999999997,0.022477906197309494,
7.5575000000000001,0.010457634925842285,
7.5599999999999996,-0.013775229454040527,
7.5625,-0.025723379105329514,
7.5650000000000004,-0.037407081574201584,
7.5674999999999999,-0.048730175942182541,
7.5700000000000003,-0.070054136216640472,
7.5724999999999998,-0.079910755157470703,
7.5750000000000002,-0.089166365563869476,
7.5774999999999997,-0.097796916961669922,
7.5800000000000001,-0.11294245719909668,
7.5824999999999996,-0.11940936744213104,
7.585,-0.12510697543621063,
7.5875000000000004,-0.13003528118133545,
7.5899999999999999,-0.13765613734722137,
7.5925000000000002,-0.14044484496116638,
7.5949999999999998,-0.14265656471252441,
7.5975000000000001,-0.14436344802379608,
7.5999999999999996,-0.14667133986949921,
7.6025,-0.14748871326446533,
7.6050000000000004,-0.14818589389324188,
7.6074999999999999,-0.14883498847484589,
7.6100000000000003,-0.15008509159088135,
7.6124999999999998,-0.15071015059947968,
7.6150000000000002,-0.151335209608078,
7.6174999999999997,-0.15193621814250946,
7.6200000000000001,-0.15304207801818848,
7.6224999999999996,-0.15352289378643036,
7.625,-0.15397965908050537,
7.6275000000000004,-0.15438835322856903,
7.6299999999999999,-0.15522977709770203,
7.6325000000000003,-0.15563845634460449,
7.6349999999999998,-0.15604715049266815,
7.6375000000000002,-0.15645584464073181,
7.6399999999999997,-0.15715301036834717,
7.6425000000000001,-0.15741746127605438,
7.6449999999999996,-0.1575857400894165,
7.6475,-0.15763382613658905,
7.6500000000000004,-0.15739342570304871,
7.6524999999999999,-0.15710493922233582,
7.6550000000000002,-0.15669624507427216,
7.6574999999999998,-0.1561913937330246,
7.6600000000000001,-0.15489320456981659,
7.6624999999999996,-0.15407583117485046,
7.665,-0.15313825011253357,
7.6675000000000004,-0.15210449695587158,
7.6699999999999999,-0.14982065558433533,
7.6725000000000003,-0.14864265918731689,
7.6749999999999998,-0.14753679931163788,
7.6775000000000002,-0.14655113220214844,
7.6799999999999997,-0.1452769935131073,
7.6825000000000001,-0.14501254260540009,
7.6849999999999996,-0.14503657817840576,
7.6875,-0.1452769935131073,
7.6900000000000004,-0.14604628086090088,
7.6924999999999999,-0.14633476734161377,
7.6950000000000003,-0.14640688896179199,
7.6974999999999998,-0.14614245295524597,
7.7000000000000002,-0.1444355696439743,
