Data Set 1:Time(s),Data Set 1:EKG(mV),Data Set 1:Heart Rate(bpm),Data Set 2:Time(s),Data Set 2:EKG(mV),Data Set 2:Heart Rate(bpm)
0,-0.04365762323141098,76.225044250488281,0,0.056375067681074142,90.909088134765625
0.0050000000000000001,-0.038609109818935394,,0.0025000000000000001,0.069284841418266296,
0.01,-0.032623015344142914,,0.0050000000000000001,0.085488162934780121,
0.014999999999999999,-0.002259810920804739,,0.0074999999999999997,0.10351856797933578,
0.02,0.0065871081314980984,,0.01,0.1215970516204834,
0.025000000000000001,0.008822878822684288,,0.012500000000000001,0.1377282589673996,
0.029999999999999999,0.01353482436388731,,0.014999999999999999,0.15676836669445038,
0.035000000000000003,0.021924972534179688,,0.017500000000000002,0.15008509159088135,
0.040000000000000001,0.044547121971845627,,0.02,0.13671855628490448,
0.044999999999999998,0.062577530741691589,,0.022499999999999999,0.11815925687551498,
0.050000000000000003,0.081737838685512543,,0.025000000000000001,0.096667014062404633,
0.055,0.082627341151237488,,0.0275,0.056495271623134613,
0.059999999999999998,0.064116120338439941,,0.029999999999999999,0.044066309928894043,
0.065000000000000002,0.044234596192836761,,0.032500000000000001,0.040219824761152267,
0.070000000000000007,0.018583338707685471,,0.035000000000000003,0.046133797615766525,
0.074999999999999997,0.010698040947318077,,0.037499999999999999,0.083661079406738281,
0.080000000000000002,0.011491378769278526,,0.040000000000000001,0.10851900279521942,
0.085000000000000006,0.013871392235159874,,0.042500000000000003,0.12993912398815155,
0.089999999999999997,0.0087507572025060654,,0.044999999999999998,0.14078140258789062,
0.095000000000000001,-0.0015145540237426758,,0.047500000000000001,0.10149916261434555,
0.10000000000000001,-0.017525553703308105,,0.050000000000000003,0.039642851799726486,
0.105,-0.020506581291556358,,0.052499999999999998,-0.054331623017787933,
0.11,-0.0074766082689166069,,0.055,-0.17948667705059052,
0.115,0.0081978244706988335,,0.057500000000000002,-0.50175011157989502,
0.12,0.024737715721130371,,0.059999999999999998,-0.68025112152099609,
0.125,0.022237500175833702,,0.0625,-0.85430467128753662,
0.13,-0.0028848648071289062,,0.065000000000000002,-1.0109528303146362,
0.13500000000000001,-0.025410851463675499,,0.067500000000000004,-1.2253944873809814,
0.14000000000000001,-0.046999257057905197,,0.070000000000000007,-1.2661432027816772,
0.14499999999999999,-0.044811569154262543,,0.072499999999999995,-1.2572001218795776,
0.14999999999999999,-0.017405351623892784,,0.074999999999999997,-1.1995749473571777,
0.155,0.0085103511810302734,,0.077499999999999999,-0.96171778440475464,
0.16,0.040508311241865158,,0.080000000000000002,-0.80088657140731812,
0.16500000000000001,0.050316851586103439,,0.082500000000000004,-0.62810719013214111,
0.17000000000000001,0.047335825860500336,,0.085000000000000006,-0.45590481162071228,
0.17499999999999999,0.038272541016340256,,0.087499999999999994,-0.15715301036834717,
0.17999999999999999,0.02291063591837883,,0.089999999999999997,-0.046782892197370529,
0.185,0.013895432464778423,,0.092499999999999999,0.031877756118774414,
0.19,0.0012741487007588148,,0.095000000000000001,0.078588530421257019,
0.19500000000000001,-0.0078372163698077202,,0.097500000000000003,0.089310608804225922,
0.20000000000000001,-0.021323960274457932,,0.10000000000000001,0.064981579780578613,
0.20499999999999999,-0.026877325028181076,,0.10249999999999999,0.030267041176557541,
0.20999999999999999,-0.023728013038635254,,0.105,-0.0078852977603673935,
0.215,-0.012957851402461529,,0.1075,-0.072458192706108093,
0.22,0.010673999786376953,,0.11,-0.092147395014762878,
0.22500000000000001,0.025458931922912598,,0.1125,-0.10207613557577133,
0.23000000000000001,0.037431120872497559,,0.115,-0.10330220311880112,
0.23499999999999999,0.037022434175014496,,0.11749999999999999,-0.08919040858745575,
0.23999999999999999,0.027574500069022179,,0.12,-0.079478025436401367,
0.245,0.01937667652964592,,0.1225,-0.071135960519313812,
0.25,0.0098325815051794052,,0.125,-0.065678760409355164,
0.255,0.0066351890563964844,,0.1275,-0.064068041741847992,
0.26000000000000001,0.0057937703095376492,,0.13,-0.066375933587551117,
0.26500000000000001,0.006611148826777935,,0.13250000000000001,-0.06885211169719696,
0.27000000000000002,0.0079574193805456161,,0.13500000000000001,-0.070174336433410645,
0.27500000000000002,0.0082939863204956055,,0.13750000000000001,-0.066015325486660004,
0.28000000000000003,0.0076208515092730522,,0.14000000000000001,-0.060678325593471527,
0.28499999999999998,0.0066351890563964844,,0.14249999999999999,-0.054331623017787933,
0.28999999999999998,0.0051446757279336452,,0.14499999999999999,-0.04844168946146965,
0.29499999999999998,0.004519621841609478,,0.14749999999999999,-0.043609540909528732,
0.29999999999999999,0.0039186081849038601,,0.14999999999999999,-0.046566527336835861,
0.30499999999999999,0.0030291080474853516,,0.1525,-0.053177677094936371,
0.31,-0.0007692973013035953,,0.155,-0.062649652361869812,
0.315,-0.0057456893846392632,,0.1575,-0.08416593074798584,
0.32000000000000001,-0.01738131046295166,,0.16,-0.092676281929016113,
0.32500000000000001,-0.027213891968131065,,0.16250000000000001,-0.097700759768486023,
0.33000000000000002,-0.041758418083190918,,0.16500000000000001,-0.09830176830291748,
0.33500000000000002,-0.048489771783351898,,0.16750000000000001,-0.086545944213867188,
0.34000000000000002,-0.049259066581726074,,0.17000000000000001,-0.075920030474662781,
0.34499999999999997,-0.041974782943725586,,0.17249999999999999,-0.064068041741847992,
0.34999999999999998,-0.020242135971784592,,0.17499999999999999,-0.052696865051984787,
0.35499999999999998,-0.0013703107833862305,,0.17749999999999999,-0.037118595093488693,
0.35999999999999999,0.026420554146170616,,0.17999999999999999,-0.034690499305725098,
0.36499999999999999,0.040604472160339355,,0.1825,-0.036084853112697601,
0.37,0.050629377365112305,,0.185,-0.040844880044460297,
0.375,0.049162905663251877,,0.1875,-0.056928001344203949,
0.38,0.038416784256696701,,0.19,-0.066087447106838226,
0.38500000000000001,0.031348865479230881,,0.1925,-0.074621841311454773,
0.39000000000000001,0.036325257271528244,,0.19500000000000001,-0.081809960305690765,
0.39500000000000002,0.059308014810085297,,0.19750000000000001,-0.090608797967433929,
0.40000000000000002,0.12943427264690399,,0.20000000000000001,-0.092243552207946777,
0.40500000000000003,0.19167523086071014,,0.20250000000000001,-0.092435881495475769,
0.40999999999999998,0.26834052801132202,,0.20499999999999999,-0.091618500649929047,
0.41499999999999998,0.27403813600540161,,0.20749999999999999,-0.089022122323513031,
0.41999999999999998,0.15893201529979706,,0.20999999999999999,-0.088084541261196136,
0.42499999999999999,-0.01384735107421875,,0.21249999999999999,-0.087796054780483246,
0.42999999999999999,-0.38303792476654053,,0.215,-0.088324949145317078,
0.435,-0.64745986461639404,,0.2175,-0.09197910875082016,
0.44,-0.9454423189163208,,0.22,-0.095032259821891785,
0.44500000000000001,-1.0144627094268799,,0.2225,-0.098806619644165039,
0.45000000000000001,-0.88204741477966309,,0.22500000000000001,-0.10315795987844467,
0.45500000000000002,-0.664023756980896,,0.22750000000000001,-0.11318286508321762,
0.46000000000000002,-0.25706550478935242,,0.23000000000000001,-0.11859198659658432,
0.46500000000000002,-0.0091113653033971786,,0.23250000000000001,-0.12412130832672119,
0.46999999999999997,0.23689548671245575,,0.23499999999999999,-0.12967467308044434,
0.47499999999999998,0.30346375703811646,,0.23749999999999999,-0.14075736701488495,
0.47999999999999998,0.2923329770565033,,0.23999999999999999,-0.14626264572143555,
0.48499999999999999,0.24667999148368835,,0.24249999999999999,-0.15186409652233124,
0.48999999999999999,0.17304381728172302,,0.245,-0.15765786170959473,
0.495,0.13621370494365692,,0.2475,-0.17030319571495056,
0.5,0.10337432473897934,,0.25,-0.17737111449241638,
0.505,0.092243552207946777,,0.2525,-0.18494388461112976,
0.51000000000000001,0.083973608911037445,,0.255,-0.19297342002391815,
0.51500000000000001,0.081232987344264984,,0.25750000000000001,-0.20994603633880615,
0.52000000000000002,0.078492365777492523,,0.26000000000000001,-0.21857659518718719,
0.52500000000000002,0.076232552528381348,,0.26250000000000001,-0.22715906798839569,
0.53000000000000003,0.070823431015014648,,0.26500000000000001,-0.23562133312225342,
0.53500000000000003,0.065919160842895508,,0.26750000000000002,-0.25244972109794617,
0.54000000000000004,0.058346390724182129,,0.27000000000000002,-0.26110431551933289,
0.54500000000000004,0.054475866258144379,,0.27250000000000002,-0.27016758918762207,
0.55000000000000004,0.051542919129133224,,0.27500000000000002,-0.27971169352531433,
0.55500000000000005,0.050917863845825195,,0.27750000000000002,-0.30014616250991821,
0.56000000000000005,0.049379270523786545,,0.28000000000000003,-0.31055569648742676,
0.56499999999999995,0.046590566635131836,,0.28249999999999997,-0.32043635845184326,
0.56999999999999995,0.039402447640895844,,0.28499999999999998,-0.32918712496757507,
0.57499999999999996,0.033608675003051758,,0.28749999999999998,-0.34055829048156738,
0.57999999999999996,0.025579135864973068,,0.28999999999999998,-0.34197670221328735,
0.58499999999999996,0.021227797493338585,,0.29249999999999998,-0.34012556076049805,
0.58999999999999997,0.014953216537833214,,0.29499999999999998,-0.33490878343582153,
0.59499999999999997,0.0094719734042882919,,0.29749999999999999,-0.31560420989990234,
0.59999999999999998,-0.0029329459648579359,,0.29999999999999999,-0.30264636874198914,
0.60499999999999998,-0.014328162185847759,,0.30249999999999999,-0.2884143590927124,
0.60999999999999999,-0.034834742546081543,,0.30499999999999999,-0.27365347743034363,
0.61499999999999999,-0.049547553062438965,,0.3075,-0.2446846216917038,
0.62,-0.071809098124504089,,0.31,-0.23110172152519226,
0.625,-0.086545944213867188,,0.3125,-0.21814386546611786,
0.63,-0.10892768949270248,,0.315,-0.20564278960227966,
0.63500000000000001,-0.12421747297048569,,0.3175,-0.1808089017868042,
0.64000000000000001,-0.14741659164428711,,0.32000000000000001,-0.16794721782207489,
0.64500000000000002,-0.16256213188171387,,0.32250000000000001,-0.1545085608959198,
0.65000000000000002,-0.18352548778057098,,0.32500000000000001,-0.1405169665813446,
0.65500000000000003,-0.19569000601768494,,0.32750000000000001,-0.11113941669464111,
0.66000000000000003,-0.21016240119934082,,0.33000000000000002,-0.096114084124565125,
0.66500000000000004,-0.21646103262901306,,0.33250000000000002,-0.081112787127494812,
0.67000000000000004,-0.21886508166790009,,0.33500000000000002,-0.066303811967372894,
0.67500000000000004,-0.21441757678985596,,0.33750000000000002,-0.0376715287566185,
0.68000000000000005,-0.19730071723461151,,0.34000000000000002,-0.023968419060111046,
0.68500000000000005,-0.17915010452270508,,0.34250000000000003,-0.010722081176936626,
0.68999999999999995,-0.14407496154308319,,0.34499999999999997,0.0019472837448120117,
0.69499999999999995,-0.11753420531749725,,0.34749999999999998,0.025194486603140831,
0.69999999999999996,-0.076593160629272461,,0.34999999999999998,0.03550788015127182,
0.70499999999999996,-0.050052404403686523,,0.35249999999999998,0.04478752613067627,
0.70999999999999996,-0.012957851402461529,,0.35499999999999998,0.05293726921081543,
0.71499999999999997,0.0094960136339068413,,0.35749999999999998,0.06570279598236084,
0.71999999999999997,0.03892163559794426,,0.35999999999999999,0.070438787341117859,
0.72499999999999998,0.05522112175822258,,0.36249999999999999,0.074237190186977386,
0.72999999999999998,0.074285268783569336,,0.36499999999999999,0.077266298234462738,
0.73499999999999999,0.083588957786560059,,0.36749999999999999,0.081641674041748047,
0.73999999999999999,0.093541741371154785,,0.37,0.083324514329433441,
0.745,0.098253689706325531,,0.3725,0.08486311137676239,
0.75,0.10363876819610596,,0.375,0.08632957935333252,
0.755,0.10647555440664291,,0.3775,0.089358687400817871,
0.76000000000000001,0.10972102731466293,,0.38,0.091017484664916992,
0.76500000000000001,0.11123558133840561,,0.38250000000000001,0.092820525169372559,
0.77000000000000002,0.11279821395874023,,0.38500000000000001,0.094743773341178894,
0.77500000000000002,0.11366367340087891,,0.38750000000000001,0.098830662667751312,
0.78000000000000003,0.11500994861125946,,0.39000000000000001,0.1008981466293335,
0.78500000000000003,0.11589944362640381,,0.39250000000000002,0.10282139480113983,
0.79000000000000004,0.11681298911571503,,0.39500000000000002,0.10457634925842285,
0.79500000000000004,0.11681298911571503,,0.39750000000000002,0.10707657039165497,
0.80000000000000004,0.11558692157268524,,0.40000000000000002,0.1077016219496727,
0.80500000000000005,0.11400024592876434,,0.40250000000000002,0.10786990821361542,
0.81000000000000005,0.11080285161733627,,0.40500000000000003,0.10758142173290253,
0.81499999999999995,0.10837475955486298,,0.40749999999999997,0.10599474608898163,
0.81999999999999995,0.1045282706618309,,0.40999999999999998,0.10491292178630829,
0.82499999999999996,0.10185977071523666,,0.41249999999999998,0.1037830114364624,
0.82999999999999996,0.09767671674489975,,0.41499999999999998,0.10274927318096161,
0.83499999999999996,0.094719730317592621,,0.41749999999999998,0.10128279775381088,
0.83999999999999997,0.08986353874206543,,0.41999999999999998,0.10087411105632782,
0.84499999999999997,0.086305543780326843,,0.42249999999999999,0.10068178176879883,
0.84999999999999998,0.080896422266960144,,0.42499999999999999,0.10058562457561493,
0.85499999999999998,0.07779519259929657,,0.42749999999999999,0.10027309507131577,
0.85999999999999999,0.074910327792167664,,0.42999999999999999,0.099912486970424652,
0.86499999999999999,0.074477598071098328,,0.4325,0.099287435412406921,
0.87,0.07567962259054184,,0.435,0.098397932946681976,
0.875,0.076953768730163574,,0.4375,0.095825597643852234,
0.88,0.077915392816066742,,0.44,0.094214878976345062,
0.88500000000000001,0.077266298234462738,,0.4425,0.092459917068481445,
0.89000000000000001,0.074405476450920105,,0.44500000000000001,0.090632840991020203,
0.89500000000000002,0.071785055100917816,,0.44750000000000001,0.087074838578701019,
0.90000000000000002,0.068082809448242188,,0.45000000000000001,0.08553624153137207,
0.90500000000000003,0.06639997661113739,,0.45250000000000001,0.084310173988342285,
0.91000000000000003,0.065438352525234222,,0.45500000000000002,0.08349280059337616,
0.91500000000000004,0.065678760409355164,,0.45750000000000002,0.083348557353019714,
0.92000000000000004,0.06639997661113739,,0.46000000000000002,0.084069773554801941,
0.92500000000000004,0.066640377044677734,,0.46250000000000002,0.085271798074245453,
0.93000000000000005,0.066087447106838226,,0.46500000000000002,0.086786352097988129,
0.93500000000000005,0.065173909068107605,,0.46750000000000003,0.090055868029594421,
0.93999999999999995,0.063298746943473816,,0.46999999999999997,0.091354057192802429,
0.94499999999999995,0.061904393136501312,,0.47249999999999998,0.092171430587768555,
0.94999999999999996,0.060053270310163498,,0.47499999999999998,0.092387795448303223,
0.95499999999999996,0.059211850166320801,,0.47749999999999998,0.090632840991020203,
0.95999999999999996,0.058827202767133713,,0.47999999999999998,0.088757678866386414,
0.96499999999999997,0.059211850166320801,,0.48249999999999998,0.086353622376918793,
0.96999999999999997,0.060413878411054611,,0.48499999999999999,0.083637043833732605,
0.97499999999999998,0.061183176934719086,,0.48749999999999999,0.078035593032836914,
0.97999999999999998,0.061351459473371506,,0.48999999999999999,0.075535379350185394,
0.98499999999999999,0.060558121651411057,,0.49249999999999999,0.073443852365016937,
0.98999999999999999,0.058226190507411957,,0.495,0.071809098124504089,
0.995,0.05630294606089592,,0.4975,0.070078179240226746,
1,0.053466163575649261,78.431373596191406,0.5,0.069861814379692078,
1.0049999999999999,0.05185544490814209,,0.50249999999999995,0.069957971572875977,
1.01,0.050364933907985687,,0.505,0.070294544100761414,
1.0149999999999999,0.050268769264221191,,0.50749999999999995,0.071328282356262207,
1.02,0.051566958427429199,,0.51000000000000001,0.071905255317687988,
1.0249999999999999,0.053129594773054123,,0.51249999999999996,0.072530314326286316,
1.03,0.055317282676696777,,0.51500000000000001,0.073131322860717773,
1.0349999999999999,0.055653851479291916,,0.51749999999999996,0.074309311807155609,
1.04,0.054403744637966156,,0.52000000000000002,0.074790120124816895,
1.0449999999999999,0.050965946167707443,,0.52249999999999996,0.075102649629116058,
1.05,0.048634015023708344,,0.52500000000000002,0.075174771249294281,
1.0549999999999999,0.047047339379787445,,0.52749999999999997,0.074333354830741882,
1.0600000000000001,0.046422284096479416,,0.53000000000000003,0.073395773768424988,
1.0649999999999999,0.046806931495666504,,0.53249999999999997,0.072169706225395203,
1.0700000000000001,0.046975217759609222,,0.53500000000000003,0.070823431015014648,
1.075,0.044979851692914963,,0.53749999999999998,0.068299174308776855,
1.0800000000000001,0.042167108505964279,,0.54000000000000004,0.06748180091381073,
1.085,0.03658970445394516,,0.54249999999999998,0.067169271409511566,
1.0900000000000001,0.032911501824855804,,0.54500000000000004,0.067409679293632507,
1.095,0.028992891311645508,,0.54749999999999999,0.069405041635036469,
1.1000000000000001,0.027838945388793945,,0.55000000000000004,0.070919595658779144,
1.105,0.027646621689200401,,0.55249999999999999,0.072530314326286316,
1.1100000000000001,0.027862986549735069,,0.55500000000000005,0.074044868350028992,
1.115,0.025771459564566612,,0.5575,0.07601618766784668,
1.1200000000000001,0.021420121192932129,,0.56000000000000005,0.076232552528381348,
1.125,0.0094238920137286186,,0.5625,0.075871944427490234,
1.1299999999999999,-0.0013462703209370375,,0.56499999999999995,0.074982449412345886,
1.135,-0.01738131046295166,,0.5675,0.072049498558044434,
1.1399999999999999,-0.024689635261893272,,0.56999999999999995,0.070342622697353363,
1.145,-0.025963783264160156,,0.57250000000000001,0.068755947053432465,
1.1499999999999999,-0.019496878609061241,,0.57499999999999996,0.067433714866638184,
1.155,-0.0012260675430297852,,0.57750000000000001,0.066063404083251953,
1.1599999999999999,0.013655027374625206,,0.57999999999999996,0.066087447106838226,
1.165,0.034281812608242035,,0.58250000000000002,0.066520176827907562,
1.1699999999999999,0.044186513870954514,,0.58499999999999996,0.067241393029689789,
1.175,0.050340890884399414,,0.58750000000000002,0.068924233317375183,
1.1799999999999999,0.048249363899230957,,0.58999999999999997,0.069621406495571136,
1.1850000000000001,0.038897596299648285,,0.59250000000000003,0.070030093193054199,
1.1899999999999999,0.033464431762695312,,0.59499999999999997,0.070150300860404968,
1.1950000000000001,0.039594769477844238,,0.59750000000000003,0.069501206278800964,
1.2,0.060870647430419922,,0.59999999999999998,0.06885211169719696,
1.2050000000000001,0.12248655408620834,,0.60250000000000004,0.068082809448242188,
1.21,0.17482280731201172,,0.60499999999999998,0.067289471626281738,
1.2150000000000001,0.23239991068840027,,0.60750000000000004,0.065967246890068054,
1.22,0.22562047839164734,,0.60999999999999999,0.065486431121826172,
1.2250000000000001,0.099936529994010925,,0.61250000000000004,0.065173909068107605,
1.23,-0.069693528115749359,,0.61499999999999999,0.065005622804164886,
1.2350000000000001,-0.41359347105026245,,0.61750000000000005,0.064885422587394714,
1.24,-0.64820510149002075,,0.62,0.064861379563808441,
1.2450000000000001,-0.89175981283187866,,0.62250000000000005,0.064789257943630219,
1.25,-0.92767637968063354,,0.625,0.0646209716796875,
1.2549999999999999,-0.76766252517700195,,0.62749999999999995,0.063995920121669769,
1.26,-0.5522112250328064,,0.63,0.06353914737701416,
1.2649999999999999,-0.17883758246898651,,0.63249999999999995,0.063058339059352875,
1.27,0.034810703247785568,,0.63500000000000001,0.062577530741691589,
1.2749999999999999,0.2299477756023407,,0.63749999999999996,0.061928432434797287,
1.28,0.27182638645172119,,0.64000000000000001,0.06183227151632309,
1.2849999999999999,0.24377107620239258,,0.64249999999999996,0.061928432434797287,
1.29,0.19850274920463562,,0.64500000000000002,0.062192879617214203,
1.2949999999999999,0.1346510648727417,,0.64749999999999996,0.063106417655944824,
1.3,0.1053696870803833,,0.65000000000000002,0.063659355044364929,
1.3049999999999999,0.079766511917114258,,0.65249999999999997,0.06423632800579071,
1.3100000000000001,0.069717571139335632,,0.65500000000000003,0.064765214920043945,
1.3149999999999999,0.058610837906599045,,0.65749999999999997,0.065558552742004395,
1.3200000000000001,0.052528582513332367,,0.66000000000000003,0.065823003649711609,
1.325,0.047552190721035004,,0.66249999999999998,0.065967246890068054,
1.3300000000000001,0.042359434068202972,,0.66500000000000004,0.06599128246307373,
1.335,0.038801431655883789,,0.66749999999999998,0.065750882029533386,
1.3400000000000001,0.036253135651350021,,0.67000000000000004,0.065486431121826172,
1.345,0.030892094597220421,,0.67249999999999999,0.065125823020935059,
1.3500000000000001,0.026180148124694824,,0.67500000000000004,0.064693093299865723,
1.355,0.018150608986616135,,0.67749999999999999,0.063611268997192383,
1.3600000000000001,0.012933811172842979,,0.68000000000000005,0.063034296035766602,
1.365,0.0063467025756835938,,0.6825,0.062409244477748871,
1.3700000000000001,0.0027887027245014906,,0.68500000000000005,0.061808228492736816,
1.375,-0.0022117297630757093,,0.6875,0.060678325593471527,
1.3799999999999999,-0.0062024593353271484,,0.68999999999999995,0.060197513550519943,
1.385,-0.014015635475516319,,0.6925,0.059812866151332855,
1.3899999999999999,-0.020362338051199913,,0.69499999999999995,0.059500336647033691,
1.395,-0.030916135758161545,,0.69750000000000001,0.059139728546142578,
1.3999999999999999,-0.038272541016340256,,0.69999999999999996,0.059019528329372406,
1.405,-0.049860082566738129,,0.70250000000000001,0.05892336368560791,
1.4099999999999999,-0.058274269104003906,,0.70499999999999996,0.058779120445251465,
1.415,-0.072842836380004883,,0.70750000000000002,0.058322351425886154,
1.4199999999999999,-0.084358260035514832,,0.70999999999999996,0.057985782623291016,
1.425,-0.10469655692577362,,0.71250000000000002,0.057601135224103928,
1.4299999999999999,-0.12013058364391327,,0.71499999999999997,0.057192444801330566,
1.4350000000000001,-0.14515678584575653,,0.71750000000000003,0.056326985359191895,
1.4399999999999999,-0.1622496098279953,,0.71999999999999997,0.055846177041530609,
1.4450000000000001,-0.18669883906841278,,0.72250000000000003,0.055269204080104828,
1.45,-0.2013154923915863,,0.72499999999999998,0.054547987878322601,
1.4550000000000001,-0.21968245506286621,,0.72750000000000004,0.052432417869567871,
1.46,-0.22929868102073669,,0.72999999999999998,0.050965946167707443,
1.4650000000000001,-0.23934762179851532,,0.73250000000000004,0.049259066581726074,
1.47,-0.24256905913352966,,0.73499999999999999,0.047407947480678558,
1.4750000000000001,-0.24088621139526367,,0.73750000000000004,0.043585501611232758,
1.48,-0.2346116304397583,,0.73999999999999999,0.041926704347133636,
1.4850000000000001,-0.21665334701538086,,0.74250000000000005,0.040604472160339355,
1.49,-0.19903163611888885,,0.745,0.039666891098022461,
1.4950000000000001,-0.16523063182830811,,0.74750000000000005,0.039186082780361176,
1.5,-0.13897836208343506,,0.75,0.039546690881252289,
1.5049999999999999,-0.096763178706169128,,0.75249999999999995,0.04017174243927002,
1.51,-0.068611703813076019,,0.755,0.040892958641052246,
1.5149999999999999,-0.029666027054190636,,0.75749999999999995,0.041830539703369141,
1.52,-0.0074044866487383842,,0.76000000000000001,0.041590135544538498,
1.5249999999999999,0.019208392128348351,,0.76249999999999996,0.040604472160339355,
1.53,0.032791297882795334,,0.76500000000000001,0.038657188415527344,
1.5349999999999999,0.048489771783351898,,0.76749999999999996,0.031517148017883301,
1.54,0.056879919022321701,,0.77000000000000002,0.026252269744873047,
1.5449999999999999,0.067361593246459961,,0.77249999999999996,0.020025771111249924,
1.55,0.073131322860717773,,0.77500000000000002,0.013054013252258301,
1.5549999999999999,0.079718433320522308,,0.77749999999999997,-0.0018030405044555664,
1.5600000000000001,0.08269946277141571,,0.78000000000000003,-0.0088709592819213867,
1.5649999999999999,0.085464119911193848,,0.78249999999999997,-0.015121500007808208,
1.5700000000000001,0.086714230477809906,,0.78500000000000003,-0.020121932029724121,
1.575,0.088493227958679199,,0.78749999999999998,-0.025098323822021484,
1.5800000000000001,0.08986353874206543,,0.79000000000000004,-0.024689635261893272,
1.585,0.092123351991176605,,0.79249999999999998,-0.022285580635070801,
1.5900000000000001,0.093421541154384613,,0.79500000000000004,-0.018006365746259689,
1.595,0.094383165240287781,,0.79749999999999999,-0.0048802299425005913,
1.6000000000000001,0.094070635735988617,,0.80000000000000004,0.0031973919831216335,
1.605,0.092243552207946777,,0.80249999999999999,0.011731783859431744,
1.6100000000000001,0.090440511703491211,,0.80500000000000005,0.020266175270080566,
1.615,0.087459489703178406,,0.8075,0.035916566848754883,
1.6200000000000001,0.085464119911193848,,0.81000000000000005,0.04257579892873764,
1.625,0.082579255104064941,,0.8125,0.04827340692281723,
1.6299999999999999,0.080680057406425476,,0.81499999999999995,0.053009390830993652,
1.635,0.07779519259929657,,0.8175,0.05983690544962883,
1.6399999999999999,0.075727701187133789,,0.81999999999999995,0.06200055405497551,
1.645,0.072193741798400879,,0.82250000000000001,0.063346825540065765,
1.6499999999999999,0.069453120231628418,,0.82499999999999996,0.063803598284721375,
1.655,0.064837336540222168,,0.82750000000000001,0.061639945954084396,
1.6599999999999999,0.061760149896144867,,0.82999999999999996,0.05892336368560791,
1.665,0.058033864945173264,,0.83250000000000002,0.055245161056518555,
1.6699999999999999,0.056615471839904785,,0.83499999999999996,0.050941906869411469,
1.675,0.056038498878479004,,0.83750000000000002,0.042864285409450531,
1.6799999999999999,0.056086581200361252,,0.83999999999999997,0.040892958641052246,
1.6850000000000001,0.055605769157409668,,0.84250000000000003,0.041734378784894943,
1.6899999999999999,0.054572027176618576,,0.84499999999999997,0.046494405716657639,
1.6950000000000001,0.052312217652797699,,0.84750000000000003,0.071280203759670258,
1.7,0.050917863845825195,,0.84999999999999998,0.092099308967590332,
1.7050000000000001,0.049980282783508301,,0.85250000000000004,0.11820733547210693,
1.71,0.050292812287807465,,0.85499999999999998,0.14847438037395477,
1.7150000000000001,0.051663123071193695,,0.85750000000000004,0.21364828944206238,
1.72,0.052624743431806564,,0.85999999999999999,0.24295370280742645,
1.7250000000000001,0.053586363792419434,,0.86250000000000004,0.26550373435020447,
1.73,0.053874850273132324,,0.86499999999999999,0.27752399444580078,
1.7350000000000001,0.054163336753845215,,0.86750000000000005,0.25497397780418396,
1.74,0.054355662316083908,,0.87,0.21393677592277527,
1.7450000000000001,0.054788392037153244,,0.87250000000000005,0.14998893439769745,
1.75,0.055076878517866135,,0.875,0.062337122857570648,
1.7549999999999999,0.055269204080104828,,0.87749999999999995,-0.17963092029094696,
1.76,0.055124960839748383,,0.88,-0.32719177007675171,
1.7649999999999999,0.054620109498500824,,0.88249999999999995,-0.48496982455253601,
1.77,0.054283540695905685,,0.88500000000000001,-0.64524811506271362,
1.7749999999999999,0.05413929745554924,,0.88749999999999996,-0.93705219030380249,
1.78,0.054379701614379883,,0.89000000000000001,-1.0498504638671875,
1.7849999999999999,0.055076878517866135,,0.89249999999999996,-1.1293044090270996,
1.79,0.055485568940639496,,0.89500000000000002,-1.1690434217453003,
1.7949999999999999,0.055365364998579025,,0.89749999999999996,-1.1179091930389404,
1.8,0.054523944854736328,,0.90000000000000002,-1.0292476415634155,
1.8049999999999999,0.052264135330915451,,0.90249999999999997,-0.905342698097229,
1.8100000000000001,0.050533216446638107,,0.90500000000000003,-0.75477683544158936,
1.8149999999999999,0.048489771783351898,,0.90749999999999997,-0.41563689708709717,
1.8200000000000001,0.047864716500043869,,0.91000000000000003,-0.24896383285522461,
1.825,0.048201285302639008,,0.91249999999999998,-0.097268030047416687,
1.8300000000000001,0.048994623124599457,,0.91500000000000004,0.032214324921369553,
1.835,0.050052404403686523,,0.91749999999999998,0.20900845527648926,
1.8400000000000001,0.049932204186916351,,0.92000000000000004,0.25552690029144287,
1.845,0.047768555581569672,,0.92249999999999999,0.27754804491996765,
1.8500000000000001,0.04507601261138916,,0.92500000000000004,0.27971169352531433,
1.855,0.04017174243927002,,0.92749999999999999,0.24619917571544647,
1.8600000000000001,0.037238799035549164,,0.93000000000000005,0.22078832983970642,
1.865,0.034858785569667816,,0.9325,0.19506494700908661,
1.8700000000000001,0.034834742546081543,,0.93500000000000005,0.17172157764434814,
1.875,0.035940609872341156,,0.9375,0.13686279952526093,
1.8799999999999999,0.035964649170637131,,0.93999999999999995,0.12537142634391785,
1.885,0.032094120979309082,,0.9425,0.11690914630889893,
1.8899999999999999,0.025843581184744835,,0.94499999999999995,0.11051436513662338,
1.895,0.01137117575854063,,0.94750000000000001,0.10048945993185043,
1.8999999999999999,7.2121620178222656e-05,,0.94999999999999996,0.095825597643852234,
1.905,-0.014376243576407433,,0.95250000000000001,0.091185770928859711,
1.9099999999999999,-0.019352635368704796,,0.95499999999999996,0.086642108857631683,
1.915,-0.016660094261169434,,0.95750000000000002,0.078612565994262695,
1.9199999999999999,-0.0082218647003173828,,0.95999999999999996,0.075415179133415222,
1.925,0.010914405807852745,,0.96250000000000002,0.072842836380004883,
1.9299999999999999,0.025050243362784386,,0.96499999999999997,0.070751309394836426,
1.9350000000000001,0.043104689568281174,,0.96750000000000003,0.067289471626281738,
1.9399999999999999,0.050797663629055023,,0.96999999999999997,0.065510474145412445,
1.9450000000000001,0.053730607032775879,,0.97250000000000003,0.063418947160243988,
1.95,0.050220690667629242,,0.97499999999999998,0.060942769050598145,
1.9550000000000001,0.041181445121765137,,0.97750000000000004,0.054884552955627441,
1.96,0.038104258477687836,,0.97999999999999998,0.051470797508955002,
1.9650000000000001,0.051086150109767914,,0.98250000000000004,0.04798492044210434,
1.97,0.078059636056423187,,0.98499999999999999,0.044595204293727875,
1.9750000000000001,0.14587800204753876,,0.98750000000000004,0.038633149117231369,
1.98,0.19778153300285339,,0.98999999999999999,0.036229096353054047,
1.9850000000000001,0.24432401359081268,,0.99250000000000005,0.034281812608242035,
1.99,0.22350490093231201,,0.995,0.032719176262617111,
1.9950000000000001,0.072289906442165375,,0.99750000000000005,0.030459364876151085,
2,-0.11171638965606689,77.348068237304688,1,0.02952178381383419,43.087970733642578
2.0049999999999999,-0.46311697363853455,,1.0024999999999999,0.028488039970397949,
2.0099999999999998,-0.68977117538452148,,1.0049999999999999,0.027286013588309288,
2.0150000000000001,-0.90382814407348633,,1.0075000000000001,0.024016499519348145,
2.02,-0.91416561603546143,,1.01,0.021876892074942589,
2.0249999999999999,-0.72095179557800293,,1.0125,0.019472837448120117,
2.0299999999999998,-0.4937446117401123,,1.0149999999999999,0.016876459121704102,
2.0350000000000001,-0.12258271872997284,,1.0175000000000001,0.011443297378718853,
2.04,0.078973174095153809,,1.02,0.0087267160415649414,
2.0449999999999999,0.25009375810623169,,1.0225,0.0061062974855303764,
2.0499999999999998,0.27776440978050232,,1.0249999999999999,0.0035339593887329102,
2.0550000000000002,0.23603002727031708,,1.0275000000000001,-0.0016107162227854133,
2.0600000000000001,0.18643438816070557,,1.03,-0.00430325698107481,
2.0649999999999999,0.12039502710103989,,1.0325,-0.0071881217882037163,
2.0699999999999998,0.091330014169216156,,1.0349999999999999,-0.01031339168548584,
2.0750000000000002,0.068347260355949402,,1.0375000000000001,-0.017309188842773438,
2.0800000000000001,0.061808228492736816,,1.04,-0.021179717034101486,
2.085,0.057697296142578125,,1.0425,-0.02524256706237793,
2.0899999999999999,0.056014459580183029,,1.0449999999999999,-0.029497742652893066,
2.0950000000000002,0.052672825753688812,,1.0475000000000001,-0.038320623338222504,
2.1000000000000001,0.049427352845668793,,1.05,-0.042864285409450531,
2.105,0.043753784149885178,,1.0525,-0.047480069100856781,
2.1099999999999999,0.04029194638133049,,1.0549999999999999,-0.052167974412441254,
2.1150000000000002,0.036205053329467773,,1.0575000000000001,-0.061928432434797287,
2.1200000000000001,0.033776961266994476,,1.0600000000000001,-0.067121192812919617,
2.125,0.02906501293182373,,1.0625,-0.072578392922878265,
2.1299999999999999,0.02461751364171505,,1.0649999999999999,-0.078420244157314301,
2.1349999999999998,0.016227364540100098,,1.0674999999999999,-0.091426178812980652,
2.1400000000000001,0.010217229835689068,,1.0700000000000001,-0.098638340830802917,
2.145,0.0016587972640991211,,1.0725,-0.10635535418987274,
2.1499999999999999,-0.0037022433243691921,,1.075,-0.11452913284301758,
2.1549999999999998,-0.011924108490347862,,1.0774999999999999,-0.13212680816650391,
2.1600000000000001,-0.017934244126081467,,1.0800000000000001,-0.14138242602348328,
2.165,-0.027550458908081055,,1.0825,-0.15085439383983612,
2.1699999999999999,-0.033873122185468674,,1.085,-0.16042253375053406,
2.1749999999999998,-0.043056607246398926,,1.0874999999999999,-0.17939051985740662,
2.1800000000000002,-0.04969179630279541,,1.0900000000000001,-0.18854996562004089,
2.1850000000000001,-0.062649652361869812,,1.0925,-0.19730071723461151,
2.1899999999999999,-0.074501633644104004,,1.095,-0.20557066798210144,
2.1949999999999998,-0.097580552101135254,,1.0974999999999999,-0.22035560011863708,
2.2000000000000002,-0.11568307876586914,,1.1000000000000001,-0.22684654593467712,
2.2050000000000001,-0.14405092597007751,,1.1025,-0.23280858993530273,
2.21,-0.16205728054046631,,1.105,-0.2382417619228363,
2.2149999999999999,-0.18583337962627411,,1.1074999999999999,-0.24780988693237305,
2.2200000000000002,-0.19915184378623962,,1.1100000000000001,-0.25194486975669861,
2.2250000000000001,-0.21552345156669617,,1.1125,-0.25559902191162109,
2.23,-0.22415399551391602,,1.115,-0.25865218043327332,
2.2349999999999999,-0.23340961337089539,,1.1174999999999999,-0.26237845420837402,
2.2400000000000002,-0.23653487861156464,,1.1200000000000001,-0.26276311278343201,
2.2450000000000001,-0.23497223854064941,,1.1225000000000001,-0.26201784610748291,
2.25,-0.22869765758514404,,1.125,-0.26004654169082642,
2.2549999999999999,-0.2100902795791626,,1.1274999999999999,-0.2524256706237793,
2.2599999999999998,-0.1915309876203537,,1.1299999999999999,-0.2468242347240448,
2.2650000000000001,-0.15587887167930603,,1.1325000000000001,-0.24011692404747009,
2.27,-0.128592848777771,,1.135,-0.23230373859405518,
2.2749999999999999,-0.085993014276027679,,1.1375,-0.21345596015453339,
2.2799999999999998,-0.058466594666242599,,1.1399999999999999,-0.20242135226726532,
2.2850000000000001,-0.02074698731303215,,1.1425000000000001,-0.19025683403015137,
2.29,0.0013703107833862305,,1.145,-0.17696242034435272,
2.2949999999999999,0.029569864273071289,,1.1475,-0.14712810516357422,
2.2999999999999998,0.044859647750854492,,1.1499999999999999,-0.13087670505046844,
2.3050000000000002,0.0622890405356884,,1.1525000000000001,-0.11400024592876434,
2.3100000000000001,0.07031857967376709,,1.155,-0.096835300326347351,
2.3149999999999999,0.077650949358940125,,1.1575,-0.063082382082939148,
2.3199999999999998,0.07995884120464325,,1.1599999999999999,-0.047215621918439865,
2.3250000000000002,0.080656014382839203,,1.1625000000000001,-0.032430689781904221,
2.3300000000000001,0.079814597964286804,,1.165,-0.018967986106872559,
2.335,0.07779519259929657,,1.1675,0.0037743649445474148,
2.3399999999999999,0.076905690133571625,,1.1699999999999999,0.013198256492614746,
2.3450000000000002,0.078179836273193359,,1.1725000000000001,0.021516283974051476,
2.3500000000000001,0.081281065940856934,,1.175,0.028968852013349533,
2.355,0.088180705904960632,,1.1775,0.042167108505964279,
2.3599999999999999,0.092556081712245941,,1.1799999999999999,0.048225324600934982,
2.3650000000000002,0.095777511596679688,,1.1825000000000001,0.054067175835371017,
2.3700000000000001,0.095032259821891785,,1.1850000000000001,0.059692662209272385,
2.375,0.090849205851554871,,1.1875,0.070198379456996918,
2.3799999999999999,0.087651811540126801,,1.1899999999999999,0.074982449412345886,
2.3849999999999998,0.084550581872463226,,1.1924999999999999,0.079405903816223145,
2.3900000000000001,0.083829365670681,,1.1950000000000001,0.083444714546203613,
2.395,0.083204314112663269,,1.1975,0.090344354510307312,
2.3999999999999999,0.081978246569633484,,1.2,0.093253254890441895,
2.4049999999999998,0.077987514436244965,,1.2024999999999999,0.095777511596679688,
2.4100000000000001,0.074309311807155609,,1.2050000000000001,0.097941160202026367,
2.415,0.068779990077018738,,1.2075,0.10125875473022461,
2.4199999999999999,0.065847039222717285,,1.21,0.10241270065307617,
2.4249999999999998,0.062890052795410156,,1.2124999999999999,0.10323008149862289,
2.4300000000000002,0.061423581093549728,,1.2150000000000001,0.10373493283987045,
2.4350000000000001,0.058875285089015961,,1.2175,0.10395129770040512,
2.4399999999999999,0.056543350219726562,,1.22,0.10373493283987045,
2.4449999999999998,0.052432417869567871,,1.2224999999999999,0.10335028171539307,
2.4500000000000002,0.050004325807094574,,1.2250000000000001,0.10284543037414551,
2.4550000000000001,0.047720473259687424,,1.2275,0.10169148445129395,
2.46,0.04723966121673584,,1.23,0.10113855451345444,
2.4649999999999999,0.04752814769744873,,1.2324999999999999,0.1007058247923851,
2.4700000000000002,0.047936838120222092,,1.2350000000000001,0.10039329528808594,
2.4750000000000001,0.04844168946146965,,1.2375,0.10032117366790771,
2.48,0.048826336860656738,,1.24,0.10056158155202866,
2.4849999999999999,0.049763917922973633,,1.2424999999999999,0.10094623267650604,
2.4900000000000002,0.050677459686994553,,1.2450000000000001,0.10140299797058105,
2.4950000000000001,0.05185544490814209,,1.2475000000000001,0.10224442183971405,
2.5,0.052071809768676758,,1.25,0.10248482227325439,
2.5049999999999999,0.051182311028242111,,1.2524999999999999,0.10250886529684067,
2.5099999999999998,0.050100486725568771,,1.2549999999999999,0.10234057903289795,
2.5150000000000001,0.048537850379943848,,1.2575000000000001,0.10152320563793182,
2.52,0.04798492044210434,,1.26,0.10099431127309799,
2.5249999999999999,0.04798492044210434,,1.2625,0.10046541690826416,
2.5299999999999998,0.04827340692281723,,1.2649999999999999,0.1000567302107811,
2.5350000000000001,0.048345528542995453,,1.2675000000000001,0.099672079086303711,
2.54,0.047936838120222092,,1.27,0.099720165133476257,
2.5449999999999999,0.046975217759609222,,1.2725,0.099912486970424652,
2.5499999999999998,0.046686731278896332,,1.2749999999999999,0.10015289485454559,
2.5550000000000002,0.047720473259687424,,1.2775000000000001,0.10051350295543671,
2.5600000000000001,0.04940330982208252,,1.28,0.10044138133525848,
2.5649999999999999,0.052504539489746094,,1.2825,0.10012885183095932,
2.5699999999999998,0.053995054215192795,,1.2849999999999999,0.099599957466125488,
2.5750000000000002,0.053730607032775879,,1.2875000000000001,0.097893081605434418,
2.5800000000000001,0.051663123071193695,,1.29,0.096883378922939301,
2.585,0.046927135437726974,,1.2925,0.095897719264030457,
2.5899999999999999,0.04399418830871582,,1.2949999999999999,0.095008216798305511,
2.5950000000000002,0.041854582726955414,,1.2975000000000001,0.093734070658683777,
2.6000000000000001,0.04228731244802475,,1.3,0.09334941953420639,
2.605,0.044691365212202072,,1.3025,0.093036890029907227,
2.6099999999999999,0.046350162476301193,,1.3049999999999999,0.09272436797618866,
2.6150000000000002,0.047215621918439865,,1.3075000000000001,0.091858908534049988,
2.6200000000000001,0.046302080154418945,,1.3100000000000001,0.091209813952445984,
2.625,0.043248932808637619,,1.3125,0.090416476130485535,
2.6299999999999999,0.040772758424282074,,1.3149999999999999,0.08947889506816864,
2.6349999999999998,0.037503242492675781,,1.3174999999999999,0.087507568299770355,
2.6400000000000001,0.036036770790815353,,1.3200000000000001,0.086545944213867188,
2.645,0.035027068108320236,,1.3225,0.085680484771728516,
2.6499999999999999,0.035075150430202484,,1.325,0.08491118997335434,
2.6549999999999998,0.035820405930280685,,1.3274999999999999,0.083685122430324554,
2.6600000000000001,0.036373339593410492,,1.3300000000000001,0.083204314112663269,
2.665,0.036301217973232269,,1.3325,0.082843706011772156,
2.6699999999999999,0.034810703247785568,,1.335,0.082555219531059265,
2.6749999999999998,0.028560161590576172,,1.3374999999999999,0.082386933267116547,
2.6800000000000002,0.021035473793745041,,1.3400000000000001,0.082531176507472992,
2.6850000000000001,0.0054091215133666992,,1.3425,0.082819662988185883,
2.6899999999999999,-0.0059860944747924805,,1.345,0.083276435732841492,
2.6949999999999998,-0.019496878609061241,,1.3474999999999999,0.084502503275871277,
2.7000000000000002,-0.023199122399091721,,1.3500000000000001,0.08519967645406723,
2.7050000000000001,-0.01829485222697258,,1.3525,0.085920892655849457,
2.71,-0.0087507572025060654,,1.355,0.08661806583404541,
2.7149999999999999,0.010794202797114849,,1.3574999999999999,0.087820097804069519,
2.7200000000000002,0.024208825081586838,,1.3600000000000001,0.088300906121730804,
2.7250000000000001,0.040628515183925629,,1.3625,0.088637471199035645,
2.73,0.047480069100856781,,1.365,0.088829800486564636,
2.7349999999999999,0.050124526023864746,,1.3674999999999999,0.088613435626029968,
2.7400000000000002,0.046999257057905197,,1.3700000000000001,0.08810858428478241,
2.7450000000000001,0.039065878838300705,,1.3725000000000001,0.087291203439235687,
2.75,0.037166677415370941,,1.375,0.086209379136562347,
2.7549999999999999,0.053081512451171875,,1.3774999999999999,0.083276435732841492,
2.7599999999999998,0.082963906228542328,,1.3799999999999999,0.081569552421569824,
2.7650000000000001,0.15561442077159882,,1.3825000000000001,0.079862676560878754,
2.77,0.20922482013702393,,1.385,0.078251957893371582,
2.7749999999999999,0.25163233280181885,,1.3875,0.075920030474662781,
2.7799999999999998,0.22124509513378143,,1.3899999999999999,0.075367093086242676,
2.7850000000000001,0.045460663735866547,,1.3925000000000001,0.075294971466064453,
2.79,-0.15864352881908417,,1.395,0.07563154399394989,
2.7949999999999999,-0.53620022535324097,,1.3975,0.077266298234462738,
2.7999999999999998,-0.77189368009567261,,1.3999999999999999,0.078251957893371582,
2.8050000000000002,-0.9813348650932312,,1.4025000000000001,0.079189538955688477,
2.8100000000000001,-0.97768068313598633,,1.405,0.079910755157470703,
2.8149999999999999,-0.7558586597442627,,1.4075,0.080439649522304535,
2.8199999999999998,-0.5109095573425293,,1.4099999999999999,0.080271363258361816,
2.8250000000000002,-0.12303948402404785,,1.4125000000000001,0.079862676560878754,
2.8300000000000001,0.082026325166225433,,1.415,0.079333782196044922,
2.835,0.25038224458694458,,1.4175,0.078300043940544128,
2.8399999999999999,0.27418237924575806,,1.4199999999999999,0.077939435839653015,
2.8450000000000002,0.22838513553142548,,1.4225000000000001,0.077723070979118347,
2.8500000000000001,0.1784769743680954,,1.425,0.077602863311767578,
2.855,0.11503398418426514,,1.4275,0.077458620071411133,
2.8599999999999999,0.088541314005851746,,1.4299999999999999,0.077314376831054688,
2.8650000000000002,0.068659782409667969,,1.4325000000000001,0.077073976397514343,
2.8700000000000001,0.062841974198818207,,1.4350000000000001,0.076737403869628906,
2.875,0.057577095925807953,,1.4375,0.075895987451076508,
2.8799999999999999,0.054211419075727463,,1.4399999999999999,0.075487300753593445,
2.8849999999999998,0.048561893403530121,,1.4424999999999999,0.075174771249294281,
2.8900000000000001,0.044499039649963379,,1.4450000000000001,0.074982449412345886,
2.895,0.038609109818935394,,1.4475,0.075054571032524109,
2.8999999999999999,0.035099189728498459,,1.45,0.075294971466064453,
2.9049999999999998,0.03060360811650753,,1.4524999999999999,0.075655579566955566,
2.9100000000000001,0.027887027710676193,,1.4550000000000001,0.076064273715019226,
2.915,0.023319324478507042,,1.4575,0.076689325273036957,
2.9199999999999999,0.019569000229239464,,1.46,0.076785489916801453,
2.9249999999999998,0.012837648391723633,,1.4624999999999999,0.076665282249450684,
2.9300000000000002,0.0078852977603673935,,1.4650000000000001,0.076328717172145844,
2.9350000000000001,0.000312527030473575,,1.4675,0.074958406388759613,
2.9399999999999999,-0.004832148551940918,,1.47,0.074044868350028992,
2.9449999999999998,-0.013126134872436523,,1.4724999999999999,0.073059201240539551,
2.9500000000000002,-0.019448798149824142,,1.4750000000000001,0.072049498558044434,
2.9550000000000001,-0.030723810195922852,,1.4775,0.070294544100761414,
2.96,-0.039402447640895844,,1.48,0.06964544951915741,
2.9649999999999999,-0.053682528436183929,,1.4824999999999999,0.069116555154323578,
2.9700000000000002,-0.063731476664543152,,1.4850000000000001,0.068755947053432465,
2.9750000000000001,-0.079453989863395691,,1.4875,0.068371295928955078,
2.98,-0.090584754943847656,,1.49,0.068299174308776855,
2.9849999999999999,-0.10907193273305893,,1.4924999999999999,0.068275138735771179,
2.9900000000000002,-0.12296736240386963,,1.4950000000000001,0.068251095712184906,
2.9950000000000001,-0.14623861014842987,,1.4975000000000001,0.068203017115592957,
3,-0.1629948616027832,76.923080444335938,1.5,0.068106852471828461,
,,,1.5024999999999999,0.067962609231472015,
,,,1.5049999999999999,0.067722201347351074,
,,,1.5075000000000001,0.067025028169155121,
,,,1.51,0.066592298448085785,
,,,1.5125,0.066159568727016449,
,,,1.5149999999999999,0.065774917602539062,
,,,1.5175000000000001,0.06531815230846405,
,,,1.52,0.065294109284877777,
,,,1.5225,0.065390273928642273,
,,,1.5249999999999999,0.065630674362182617,
,,,1.5275000000000001,0.066375933587551117,
,,,1.53,0.066808663308620453,
,,,1.5325,0.067241393029689789,
,,,1.5349999999999999,0.067650079727172852,
,,,1.5375000000000001,0.068251095712184906,
,,,1.54,0.068395338952541351,
,,,1.5425,0.068419381976127625,
,,,1.5449999999999999,0.068299174308776855,
,,,1.5475000000000001,0.067650079727172852,
,,,1.55,0.067169271409511566,
,,,1.5525,0.066616341471672058,
,,,1.5549999999999999,0.066087447106838226,
,,,1.5575000000000001,0.065173909068107605,
,,,1.5600000000000001,0.064861379563808441,
,,,1.5625,0.064669057726860046,
,,,1.5649999999999999,0.064548850059509277,
,,,1.5674999999999999,0.064356528222560883,
,,,1.5700000000000001,0.064164206385612488,
,,,1.5725,0.063803598284721375,
,,,1.575,0.06325066089630127,
,,,1.5774999999999999,0.06137549877166748,
,,,1.5800000000000001,0.060053270310163498,
,,,1.5825,0.058514676988124847,
,,,1.585,0.056831836700439453,
,,,1.5874999999999999,0.053466163575649261,
,,,1.5900000000000001,0.052023731172084808,
,,,1.5925,0.050917863845825195,
,,,1.595,0.050244729965925217,
,,,1.5974999999999999,0.050388973206281662,
,,,1.6000000000000001,0.051206350326538086,
,,,1.6025,0.052408378571271896,
,,,1.605,0.053874850273132324,
,,,1.6074999999999999,0.056928001344203949,
,,,1.6100000000000001,0.058130025863647461,
,,,1.6125,0.058899324387311935,
,,,1.615,0.058995485305786133,
,,,1.6174999999999999,0.056687593460083008,
,,,1.6200000000000001,0.054043136537075043,
,,,1.6225000000000001,0.050316851586103439,
,,,1.625,0.045532785356044769,
,,,1.6274999999999999,0.033175945281982422,
,,,1.6299999999999999,0.026059946045279503,
,,,1.6325000000000001,0.018727581948041916,
,,,1.635,0.011587540619075298,
,,,1.6375,-0.00052889192011207342,
,,,1.6399999999999999,-0.0046879053115844727,
,,,1.6425000000000001,-0.007140040397644043,
,,,1.645,-0.0076929731294512749,
,,,1.6475,-0.0030050675850361586,
,,,1.6499999999999999,0.0020194053649902344,
,,,1.6525000000000001,0.0084622707217931747,
,,,1.655,0.015914838761091232,
,,,1.6575,0.032214324921369553,
,,,1.6599999999999999,0.040243864059448242,
,,,1.6625000000000001,0.047720473259687424,
,,,1.665,0.054427783936262131,
,,,1.6675,0.065246030688285828,
,,,1.6699999999999999,0.069380998611450195,
,,,1.6725000000000001,0.072746679186820984,
,,,1.675,0.075415179133415222,
,,,1.6775,0.078708730638027191,
,,,1.6799999999999999,0.079189538955688477,
,,,1.6825000000000001,0.078684687614440918,
,,,1.6850000000000001,0.07709801197052002,
,,,1.6875,0.070847474038600922,
,,,1.6899999999999999,0.06673654168844223,
,,,1.6924999999999999,0.062673687934875488,
,,,1.6950000000000001,0.059596501290798187,
,,,1.6975,0.060389839112758636,
,,,1.7,0.06639997661113739,
,,,1.7024999999999999,0.077290341258049011,
,,,1.7050000000000001,0.093445584177970886,
,,,1.7075,0.1407092809677124,
,,,1.71,0.16975025832653046,
,,,1.7124999999999999,0.20004133880138397,
,,,1.7150000000000001,0.22898614406585693,
,,,1.7175,0.27057629823684692,
,,,1.72,0.27646622061729431,
,,,1.7224999999999999,0.26793181896209717,
,,,1.7250000000000001,0.24196803569793701,
,,,1.7275,0.12919387221336365,
,,,1.73,0.040628515183925629,
,,,1.7324999999999999,-0.068275138735771179,
,,,1.7350000000000001,-0.19475242495536804,
,,,1.7375,-0.48083484172821045,
,,,1.74,-0.62685710191726685,
,,,1.7424999999999999,-0.76388818025588989,
,,,1.7450000000000001,-0.88322544097900391,
,,,1.7475000000000001,-1.0366522073745728,
,,,1.75,-1.058480978012085,
,,,1.7524999999999999,-1.0394889116287231,
,,,1.7549999999999999,-0.98022902011871338,
,,,1.7575000000000001,-0.75799822807312012,
,,,1.76,-0.61017298698425293,
,,,1.7625,-0.45085629820823669,
,,,1.7649999999999999,-0.29057800769805908,
,,,1.7675000000000001,-0.0049283108673989773,
,,,1.77,0.10606686770915985,
,,,1.7725,0.19052128493785858,
,,,1.7749999999999999,0.24771372973918915,
,,,1.7775000000000001,0.28968852758407593,
,,,1.78,0.28317353129386902,
,,,1.7825,0.26543161273002625,
,,,1.7849999999999999,0.24172763526439667,
,,,1.7875000000000001,0.19316574931144714,
,,,1.79,0.17369291186332703,
,,,1.7925,0.15895605087280273,
,,,1.7949999999999999,0.14876286685466766,
,,,1.7975000000000001,0.13816098868846893,
,,,1.8,0.13522803783416748,
,,,1.8025,0.13229510188102722,
,,,1.8049999999999999,0.12864093482494354,
,,,1.8075000000000001,0.11799097061157227,
,,,1.8100000000000001,0.11128365993499756,
,,,1.8125,0.10419170558452606,
,,,1.8149999999999999,0.097219944000244141,
,,,1.8174999999999999,0.085127554833889008,
,,,1.8200000000000001,0.080487728118896484,
,,,1.8225,0.076857611536979675,
,,,1.825,0.074092946946620941,
,,,1.8274999999999999,0.070462822914123535,
,,,1.8300000000000001,0.069164633750915527,
,,,1.8325,0.067938566207885742,
,,,1.835,0.065294109284877777,
,,,1.8374999999999999,0.063683390617370605,
,,,1.8400000000000001,0.061880350112915039,
,,,1.8425,0.05983690544962883,
,,,1.845,0.055149000138044357,
,,,1.8474999999999999,0.052576661109924316,
,,,1.8500000000000001,0.049956243485212326,
,,,1.8525,0.047287743538618088,
,,,1.855,0.042167108505964279,
,,,1.8574999999999999,0.039763055741786957,
,,,1.8600000000000001,0.037479203194379807,
,,,1.8625,0.035363636910915375,
,,,1.865,0.031420987099409103,
,,,1.8674999999999999,0.029569864273071289,
,,,1.8700000000000001,0.027742784470319748,
,,,1.8725000000000001,0.025939743965864182,
,,,1.875,0.024136703461408615,
,,,1.8774999999999999,0.020410418510437012,
,,,1.8799999999999999,0.018439095467329025,
,,,1.8825000000000001,0.016371607780456543,
,,,1.885,0.011707743629813194,
,,,1.8875,0.0090873241424560547,
,,,1.8899999999999999,0.0062024593353271484,
,,,1.8925000000000001,0.0030291080474853516,
,,,1.895,-0.0041109323501586914,
,,,1.8975,-0.0081257028505206108,
,,,1.8999999999999999,-0.012380878441035748,
,,,1.9025000000000001,-0.016876459121704102,
,,,1.905,-0.026420554146170616,
,,,1.9075,-0.031445026397705078,
,,,1.9099999999999999,-0.036565661430358887,
,,,1.9125000000000001,-0.041782461106777191,
,,,1.915,-0.052552621811628342,
,,,1.9175,-0.058178108185529709,
,,,1.9199999999999999,-0.064043998718261719,
,,,1.9225000000000001,-0.070222422480583191,
,,,1.925,-0.083661079406738281,
,,,1.9275,-0.090969406068325043,
,,,1.9299999999999999,-0.098662376403808594,
,,,1.9325000000000001,-0.10666787624359131,
,,,1.9350000000000001,-0.12347221374511719,
,,,1.9375,-0.13212680816650391,
,,,1.9399999999999999,-0.14092564582824707,
,,,1.9424999999999999,-0.14979660511016846,
,,,1.9450000000000001,-0.15869161486625671,
,,,1.9475,-0.17621716856956482,
,,,1.95,-0.18465539813041687,
,,,1.9524999999999999,-0.19275705516338348,
,,,1.9550000000000001,-0.20040194690227509,
,,,1.9575,-0.21388868987560272,
,,,1.96,-0.21963438391685486,
,,,1.9624999999999999,-0.2247309684753418,
,,,1.9650000000000001,-0.22917847335338593,
,,,1.9675,-0.23641467094421387,
,,,1.97,-0.2392755001783371,
,,,1.9724999999999999,-0.2416074275970459,
,,,1.9750000000000001,-0.2444922924041748,
,,,1.9775,-0.2447807788848877,
,,,1.98,-0.24405956268310547,
,,,1.9824999999999999,-0.24220845103263855,
,,,1.9850000000000001,-0.23432314395904541,
,,,1.9875,-0.22809664905071259,
,,,1.99,-0.22028347849845886,
,,,1.9924999999999999,-0.21090766787528992,
,,,1.9950000000000001,-0.18799702823162079,
,,,1.9975000000000001,-0.17482280731201172,
,,,2,-0.16080717742443085,42.704627990722656
,,,2.0024999999999999,-0.14619052410125732,
,,,2.0049999999999999,-0.1160917729139328,
,,,2.0074999999999998,-0.10099431127309799,
,,,2.0099999999999998,-0.086089178919792175,
,,,2.0125000000000002,-0.071496568620204926,
,,,2.0150000000000001,-0.043633580207824707,
,,,2.0175000000000001,-0.030555527657270432,
,,,2.02,-0.018174648284912109,
,,,2.0225,-0.0065390272065997124,
,,,2.0249999999999999,0.00430325698107481,
,,,2.0274999999999999,0.02353568933904171,
,,,2.0299999999999998,0.031949877738952637,
,,,2.0325000000000002,0.039690934121608734,
,,,2.0350000000000001,0.053394041955471039,
,,,2.0375000000000001,0.059548418968915939,
,,,2.04,0.06531815230846405,
,,,2.0425,0.070703230798244476,
,,,2.0449999999999999,0.08024732768535614,
,,,2.0474999999999999,0.084310173988342285,
,,,2.0499999999999998,0.087820097804069519,
,,,2.0525000000000002,0.090680919587612152,
,,,2.0550000000000002,0.094455286860466003,
,,,2.0575000000000001,0.095392867922782898,
,,,2.0600000000000001,0.095801554620265961,
,,,2.0625,0.095801554620265961,
,,,2.0649999999999999,0.095585189759731293,
,,,2.0674999999999999,0.095056295394897461,
,,,2.0699999999999998,0.095032259821891785,
,,,2.0724999999999998,0.095344781875610352,
,,,2.0750000000000002,0.09693145751953125,
,,,2.0775000000000001,0.098109446465969086,
,,,2.0800000000000001,0.099455714225769043,
,,,2.0825,0.1008019894361496,
,,,2.085,0.10310988128185272,
,,,2.0874999999999999,0.10392725467681885,
,,,2.0899999999999999,0.10445614904165268,
,,,2.0924999999999998,0.1047205924987793,
,,,2.0950000000000002,0.10460039228200912,
,,,2.0975000000000001,0.10428786277770996,
,,,2.1000000000000001,0.10383109748363495,
,,,2.1025,0.10327816009521484,
,,,2.105,0.10190784931182861,
,,,2.1074999999999999,0.10111451148986816,
,,,2.1099999999999999,0.10032117366790771,
,,,2.1124999999999998,0.099527835845947266,
,,,2.1150000000000002,0.098133489489555359,
,,,2.1175000000000002,0.097580552101135254,
,,,2.1200000000000001,0.097171865403652191,
,,,2.1225000000000001,0.096859335899353027,
,,,2.125,0.096402570605278015,
,,,2.1274999999999999,0.096186205744743347,
,,,2.1299999999999999,0.095873676240444183,
,,,2.1324999999999998,0.095440946519374847,
,,,2.1349999999999998,0.094070635735988617,
,,,2.1375000000000002,0.093133054673671722,
,,,2.1400000000000001,0.092027187347412109,
,,,2.1425000000000001,0.090777084231376648,
,,,2.145,0.087988376617431641,
,,,2.1475,0.086521908640861511,
,,,2.1499999999999999,0.085103511810302734,
,,,2.1524999999999999,0.083709165453910828,
,,,2.1549999999999998,0.081112787127494812,
,,,2.1575000000000002,0.079886719584465027,
,,,2.1600000000000001,0.078684687614440918,
,,,2.1625000000000001,0.077482663094997406,
,,,2.165,0.075006484985351562,
,,,2.1675,0.073780417442321777,
,,,2.1699999999999999,0.072578392922878265,
,,,2.1724999999999999,0.071448490023612976,
,,,2.1749999999999998,0.069525241851806641,
,,,2.1775000000000002,0.068779990077018738,
,,,2.1800000000000002,0.068178974092006683,
,,,2.1825000000000001,0.067698165774345398,
,,,2.1850000000000001,0.066952906548976898,
,,,2.1875,0.066664420068264008,
,,,2.1899999999999999,0.06639997661113739,
,,,2.1924999999999999,0.066159568727016449,
,,,2.1949999999999998,0.06570279598236084,
,,,2.1974999999999998,0.065486431121826172,
,,,2.2000000000000002,0.065246030688285828,
,,,2.2025000000000001,0.064933501183986664,
,,,2.2050000000000001,0.064068041741847992,
,,,2.2075,0.063442990183830261,
,,,2.21,0.062721773982048035,
,,,2.2124999999999999,0.061904393136501312,
,,,2.2149999999999999,0.060245595872402191,
,,,2.2174999999999998,0.059524379670619965,
,,,2.2200000000000002,0.058995485305786133,
,,,2.2225000000000001,0.058682959526777267,
,,,2.2250000000000001,0.059019528329372406,
,,,2.2275,0.05966862291097641,
,,,2.23,0.060606203973293304,
,,,2.2324999999999999,0.061760149896144867,
,,,2.2349999999999999,0.064332485198974609,
,,,2.2374999999999998,0.065486431121826172,
,,,2.2400000000000002,0.066375933587551117,
,,,2.2425000000000002,0.066928863525390625,
,,,2.2450000000000001,0.06678462028503418,
,,,2.2475000000000001,0.0661114901304245,
,,,2.25,0.065101787447929382,
,,,2.2524999999999999,0.063875719904899597,
,,,2.2549999999999999,0.061135094612836838,
,,,2.2574999999999998,0.05983690544962883,
,,,2.2599999999999998,0.058682959526777267,
,,,2.2625000000000002,0.057745378464460373,
,,,2.2650000000000001,0.056687593460083008,
,,,2.2675000000000001,0.056615471839904785,
,,,2.27,0.056903958320617676,
,,,2.2725,0.057529013603925705,
,,,2.2749999999999999,0.059812866151332855,
,,,2.2774999999999999,0.061327420175075531,
,,,2.2799999999999998,0.062938138842582703,
,,,2.2825000000000002,0.064524814486503601,
,,,2.2850000000000001,0.066928863525390625,
,,,2.2875000000000001,0.067457757890224457,
,,,2.29,0.067409679293632507,
,,,2.2925,0.066760584712028503,
,,,2.2949999999999999,0.063875719904899597,
,,,2.2974999999999999,0.061928432434797287,
,,,2.2999999999999998,0.059884987771511078,
,,,2.3025000000000002,0.057961743324995041,
,,,2.3050000000000002,0.055149000138044357,
,,,2.3075000000000001,0.054499905556440353,
,,,2.3100000000000001,0.054403744637966156,
,,,2.3125,0.054764352738857269,
,,,2.3149999999999999,0.056399106979370117,
,,,2.3174999999999999,0.057336688041687012,
,,,2.3199999999999998,0.058105986565351486,
,,,2.3224999999999998,0.05858679860830307,
,,,2.3250000000000002,0.058490633964538574,
,,,2.3275000000000001,0.057961743324995041,
,,,2.3300000000000001,0.05721648782491684,
,,,2.3325,0.056399106979370117,
,,,2.335,0.054980717599391937,
,,,2.3374999999999999,0.054547987878322601,
,,,2.3399999999999999,0.05430757999420166,
,,,2.3424999999999998,0.054259501397609711,
,,,2.3450000000000002,0.054499905556440353,
,,,2.3475000000000001,0.054692231118679047,
,,,2.3500000000000001,0.054860513657331467,
,,,2.3525,0.055004756897687912,
,,,2.355,0.055173039436340332,
,,,2.3574999999999999,0.055269204080104828,
,,,2.3599999999999999,0.055389404296875,
,,,2.3624999999999998,0.055533647537231445,
,,,2.3650000000000002,0.055870216339826584,
,,,2.3675000000000002,0.056014459580183029,
,,,2.3700000000000001,0.056086581200361252,
,,,2.3725000000000001,0.056086581200361252,
,,,2.375,0.055653851479291916,
,,,2.3774999999999999,0.055197082459926605,
,,,2.3799999999999999,0.054620109498500824,
,,,2.3824999999999998,0.053946971893310547,
,,,2.3849999999999998,0.052480500191450119,
,,,2.3875000000000002,0.05185544490814209,
,,,2.3900000000000001,0.051350593566894531,
,,,2.3925000000000001,0.051038067787885666,
,,,2.395,0.050989985466003418,
,,,2.3975,0.051230393350124359,
,,,2.3999999999999999,0.051566958427429199,
,,,2.4024999999999999,0.051951609551906586,
,,,2.4049999999999998,0.052552621811628342,
,,,2.4075000000000002,0.052696865051984787,
,,,2.4100000000000001,0.052672825753688812,
,,,2.4125000000000001,0.052480500191450119,
,,,2.415,0.05151887983083725,
,,,2.4175,0.050701498985290527,
,,,2.4199999999999999,0.049667757004499435,
,,,2.4224999999999999,0.048369567841291428,
,,,2.4249999999999998,0.044979851692914963,
,,,2.4275000000000002,0.042960446327924728,
,,,2.4300000000000002,0.040796797722578049,
,,,2.4325000000000001,0.038585066795349121,
,,,2.4350000000000001,0.034402012825012207,
,,,2.4375,0.032598972320556641,
,,,2.4399999999999999,0.031084418296813965,
,,,2.4424999999999999,0.029882391914725304,
,,,2.4449999999999998,0.028584202751517296,
,,,2.4474999999999998,0.028391879051923752,
,,,2.4500000000000002,0.028488039970397949,
,,,2.4525000000000001,0.02877652645111084,
,,,2.4550000000000001,0.02969006821513176,
,,,2.4575,0.03014683723449707,
,,,2.46,0.030459364876151085,
,,,2.4624999999999999,0.030555527657270432,
,,,2.4649999999999999,0.029666027054190636,
,,,2.4674999999999998,0.028512081131339073,
,,,2.4700000000000002,0.026733081787824631,
,,,2.4725000000000001,0.02428094670176506,
,,,2.4750000000000001,0.017116865143179893,
,,,2.4775,0.012404918670654297,
,,,2.48,0.007043878547847271,
,,,2.4824999999999999,0.0011539459228515625,
,,,2.4849999999999999,-0.011130770668387413,
,,,2.4874999999999998,-0.016876459121704102,
,,,2.4900000000000002,-0.021876892074942589,
,,,2.4925000000000002,-0.02569933794438839,
,,,2.4950000000000001,-0.028800567612051964,
,,,2.4975000000000001,-0.027718743309378624,
,,,2.5,-0.02490600012242794,
,,,2.5024999999999999,-0.020506581291556358,
,,,2.5049999999999999,-0.0081257028505206108,
,,,2.5074999999999998,-0.0008895000210031867,
,,,2.5099999999999998,0.0065390272065997124,
,,,2.5125000000000002,0.013823310844600201,
,,,2.5150000000000001,0.026997527107596397,
,,,2.5175000000000001,0.032647054642438889,
,,,2.52,0.037647485733032227,
,,,2.5225,0.042046904563903809,
,,,2.5249999999999999,0.049162905663251877,
,,,2.5274999999999999,0.051879487931728363,
,,,2.5299999999999998,0.053898893296718597,
,,,2.5325000000000002,0.055028796195983887,
,,,2.5350000000000001,0.05401909351348877,
,,,2.5375000000000001,0.051663123071193695,
,,,2.54,0.048249363899230957,
,,,2.5425,0.044138431549072266,
,,,2.5449999999999999,0.036878190934658051,
,,,2.5474999999999999,0.035748284310102463,
,,,2.5499999999999998,0.037815771996974945,
,,,2.5525000000000002,0.044186513870954514,
,,,2.5550000000000002,0.072554349899291992,
,,,2.5575000000000001,0.094743773341178894,
,,,2.5600000000000001,0.12133260816335678,
,,,2.5625,0.1507822722196579,
,,,2.5649999999999999,0.20891229808330536,
,,,2.5674999999999999,0.23158252239227295,
,,,2.5699999999999998,0.24552604556083679,
,,,2.5724999999999998,0.24723291397094727,
,,,2.5750000000000002,0.20143568515777588,
,,,2.5775000000000001,0.14905135333538055,
,,,2.5800000000000001,0.075343057513237,
,,,2.5825,-0.019448798149824142,
,,,2.585,-0.2637006938457489,
,,,2.5874999999999999,-0.40472251176834106,
,,,2.5899999999999999,-0.55009567737579346,
,,,2.5924999999999998,-0.69205504655838013,
,,,2.5950000000000002,-0.93176329135894775,
,,,2.5975000000000001,-1.0131405591964722,
,,,2.6000000000000001,-1.0598993301391602,
,,,2.6025,-1.0678327083587646,
,,,2.605,-0.96441030502319336,
,,,2.6074999999999999,-0.85906469821929932,
,,,2.6099999999999999,-0.72652918100357056,
,,,2.6124999999999998,-0.57586711645126343,
,,,2.6150000000000002,-0.2606235146522522,
,,,2.6175000000000002,-0.11549075692892075,
,,,2.6200000000000001,0.010673999786376953,
,,,2.6225000000000001,0.11272609233856201,
,,,2.625,0.23696760833263397,
,,,2.6274999999999999,0.26160916686058044,
,,,2.6299999999999999,0.2661287784576416,
,,,2.6324999999999998,0.25555095076560974,
,,,2.6349999999999998,0.21021048724651337,
,,,2.6375000000000002,0.1845351904630661,
,,,2.6400000000000001,0.16119182109832764,
,,,2.6425000000000001,0.14188727736473083,
,,,2.645,0.11705338954925537,
,,,2.6475,0.11029800027608871,
,,,2.6499999999999999,0.10592262446880341,
,,,2.6524999999999999,0.10274927318096161,
,,,2.6549999999999998,0.096618935465812683,
,,,2.6575000000000002,0.092772446572780609,
,,,2.6600000000000001,0.088300906121730804,
,,,2.6625000000000001,0.083444714546203613,
,,,2.665,0.073876582086086273,
,,,2.6675,0.069741606712341309,
,,,2.6699999999999999,0.066279768943786621,
,,,2.6724999999999999,0.063491068780422211,
,,,2.6749999999999998,0.059548418968915939,
,,,2.6775000000000002,0.058009825646877289,
,,,2.6800000000000002,0.05647122859954834,
,,,2.6825000000000001,0.054812431335449219,
,,,2.6850000000000001,0.050701498985290527,
,,,2.6875,0.04827340692281723,
,,,2.6899999999999999,0.045652985572814941,
,,,2.6924999999999999,0.042960446327924728,
,,,2.6949999999999998,0.0376715287566185,
,,,2.6974999999999998,0.035171311348676682,
,,,2.7000000000000002,0.032815337181091309,
,,,2.7025000000000001,0.030579566955566406,
,,,2.7050000000000001,0.02632439136505127,
,,,2.7075,0.024256905540823936,
,,,2.71,0.022165378555655479,
,,,2.7124999999999999,0.020073851570487022,
,,,2.7149999999999999,0.015890797600150108,
,,,2.7174999999999998,0.013823310844600201,
,,,2.7200000000000002,0.011803905479609966,
,,,2.7225000000000001,0.0098325815051794052,
,,,2.7250000000000001,0.0061062974855303764,
,,,2.7275,0.0043753786012530327,
,,,2.73,0.0026684999465942383,
,,,2.7324999999999999,0.00098566222004592419,
,,,2.7349999999999999,-0.0025723378639668226,
,,,2.7374999999999998,-0.0045917434617877007,
,,,2.7400000000000002,-0.0068996353074908257,
,,,2.7425000000000002,-0.0095200538635253906,
,,,2.7450000000000001,-0.01584271714091301,
,,,2.7475000000000001,-0.019520919770002365,
,,,2.75,-0.023487608879804611,
,,,2.7524999999999999,-0.027670662850141525,
,,,2.7549999999999999,-0.036493539810180664,
,,,2.7574999999999998,-0.041061244904994965,
,,,2.7599999999999998,-0.045725107192993164,
,,,2.7625000000000002,-0.050533216446638107,
,,,2.7650000000000001,-0.060798525810241699,
,,,2.7675000000000001,-0.066351890563964844,
,,,2.77,-0.072217784821987152,
,,,2.7725,-0.078444287180900574,
,,,2.7749999999999999,-0.091882944107055664,
,,,2.7774999999999999,-0.09909510612487793,
,,,2.7799999999999998,-0.10661979764699936,
,,,2.7825000000000002,-0.11438488960266113,
,,,2.7850000000000001,-0.13054013252258301,
,,,2.7875000000000001,-0.13885816931724548,
,,,2.79,-0.14729639887809753,
,,,2.7925,-0.15578269958496094,
,,,2.7949999999999999,-0.17277936637401581,
,,,2.7974999999999999,-0.18121759593486786,
,,,2.7999999999999998,-0.18953561782836914,
,,,2.8025000000000002,-0.1976853609085083,
,,,2.8050000000000002,-0.21323959529399872,
,,,2.8075000000000001,-0.22052387893199921,
,,,2.8100000000000001,-0.22737543284893036,
,,,2.8125,-0.23372213542461395,
,,,2.8149999999999999,-0.24473270773887634,
,,,2.8174999999999999,-0.24927636981010437,
,,,2.8199999999999998,-0.25317093729972839,
,,,2.8224999999999998,-0.25634428858757019,
,,,2.8250000000000002,-0.26035904884338379,
,,,2.8275000000000001,-0.26105624437332153,
,,,2.8300000000000001,-0.26074370741844177,
,,,2.8325,-0.25930127501487732,
,,,2.835,-0.25271415710449219,
,,,2.8374999999999999,-0.24732908606529236,
,,,2.8399999999999999,-0.24050156772136688,
,,,2.8424999999999998,-0.23215949535369873,
,,,2.8450000000000002,-0.21105191111564636,
,,,2.8475000000000001,-0.1984306275844574,
,,,2.8500000000000001,-0.18460731208324432,
,,,2.8525,-0.16982237994670868,
,,,2.855,-0.13840138912200928,
,,,2.8574999999999999,-0.12236635386943817,
,,,2.8599999999999999,-0.10652363300323486,
,,,2.8624999999999998,-0.091113649308681488,
,,,2.8650000000000002,-0.062433283776044846,
,,,2.8675000000000002,-0.049331188201904297,
,,,2.8700000000000001,-0.037070512771606445,
,,,2.8725000000000001,-0.025603175163269043,
,,,2.875,-0.0045917434617877007,
,,,2.8774999999999999,0.0050965948030352592,
,,,2.8799999999999999,0.014280080795288086,
,,,2.8824999999999998,0.023006796836853027,
,,,2.8849999999999998,0.038825474679470062,
,,,2.8875000000000002,0.045845311135053635,
,,,2.8900000000000001,0.052167974412441254,
,,,2.8925000000000001,0.057769417762756348,
,,,2.895,0.066832706332206726,
,,,2.8975,0.070342622697353363,
,,,2.8999999999999999,0.073251530528068542,
,,,2.9024999999999999,0.075655579566955566,
,,,2.9049999999999998,0.07921358197927475,
,,,2.9075000000000002,0.080535814166069031,
,,,2.9100000000000001,0.081617638468742371,
,,,2.9125000000000001,0.082507133483886719,
,,,2.915,0.083829365670681,
,,,2.9175,0.084262095391750336,
,,,2.9199999999999999,0.084598660469055176,
,,,2.9224999999999999,0.084839068353176117,
,,,2.9249999999999998,0.085175633430480957,
,,,2.9275000000000002,0.085391998291015625,
,,,2.9300000000000002,0.085656449198722839,
,,,2.9325000000000001,0.086041092872619629,
,,,2.9350000000000001,0.087195038795471191,
,,,2.9375,0.087964341044425964,
,,,2.9399999999999999,0.08878171443939209,
,,,2.9424999999999999,0.089647173881530762,
,,,2.9449999999999998,0.091330014169216156,
,,,2.9474999999999998,0.092099308967590332,
,,,2.9500000000000002,0.092772446572780609,
,,,2.9525000000000001,0.093325376510620117,
,,,2.9550000000000001,0.09409467875957489,
,,,2.9575,0.094262957572937012,
,,,2.96,0.094287000596523285,
,,,2.9624999999999999,0.09414275735616684,
,,,2.9649999999999999,0.093421541154384613,
,,,2.9674999999999998,0.092868611216545105,
,,,2.9700000000000002,0.092243552207946777,
,,,2.9725000000000001,0.091570422053337097,
,,,2.9750000000000001,0.090176068246364594,
,,,2.9775,0.089502930641174316,
,,,2.98,0.088853836059570312,
,,,2.9824999999999999,0.088204741477966309,
,,,2.9849999999999999,0.087002716958522797,
,,,2.9874999999999998,0.086425743997097015,
,,,2.9900000000000002,0.085872814059257507,
,,,2.9925000000000002,0.085343919694423676,
,,,2.9950000000000001,0.084238052368164062,
,,,2.9975000000000001,0.083637043833732605,
,,,3,0.082963906228542328,33.962265014648438
,,,3.0024999999999999,0.082194611430168152,
,,,3.0049999999999999,0.080391570925712585,
,,,3.0074999999999998,0.079429946839809418,
,,,3.0099999999999998,0.078492365777492523,
,,,3.0125000000000002,0.077602863311767578,
,,,3.0150000000000001,0.076184473931789398,
,,,3.0175000000000001,0.07567962259054184,
,,,3.02,0.075294971466064453,
,,,3.0225,0.074982449412345886,
,,,3.0249999999999999,0.074429512023925781,
,,,3.0274999999999999,0.074141025543212891,
,,,3.0299999999999998,0.073780417442321777,
,,,3.0325000000000002,0.073347687721252441,
,,,3.0350000000000001,0.072217784821987152,
,,,3.0375000000000001,0.071568690240383148,
,,,3.04,0.070847474038600922,
,,,3.0425,0.070102214813232422,
,,,3.0449999999999999,0.068611703813076019,
,,,3.0474999999999999,0.067890487611293793,
,,,3.0499999999999998,0.067265436053276062,
,,,3.0525000000000002,0.066712498664855957,
,,,3.0550000000000002,0.065895125269889832,
,,,3.0575000000000001,0.065606638789176941,
,,,3.0600000000000001,0.065414309501647949,
,,,3.0625,0.065270066261291504,
,,,3.0649999999999999,0.065077744424343109,
,,,3.0674999999999999,0.065005622804164886,
,,,3.0699999999999998,0.064957544207572937,
,,,3.0724999999999998,0.064909458160400391,
,,,3.0750000000000002,0.064957544207572937,
,,,3.0775000000000001,0.06502966582775116,
,,,3.0800000000000001,0.065149866044521332,
,,,3.0825,0.065294109284877777,
,,,3.085,0.065678760409355164,
,,,3.0874999999999999,0.065871082246303558,
,,,3.0899999999999999,0.066015325486660004,
,,,3.0924999999999998,0.066135525703430176,
,,,3.0950000000000002,0.066039368510246277,
,,,3.0975000000000001,0.065798960626125336,
,,,3.1000000000000001,0.065390273928642273,
,,,3.1025,0.064861379563808441,
,,,3.105,0.063635312020778656,
,,,3.1074999999999999,0.063058339059352875,
,,,3.1099999999999999,0.062625609338283539,
,,,3.1124999999999998,0.062409244477748871,
,,,3.1150000000000002,0.062745809555053711,
,,,3.1175000000000002,0.06325066089630127,
,,,3.1200000000000001,0.06394784152507782,
,,,3.1225000000000001,0.064693093299865723,
,,,3.125,0.066063404083251953,
,,,3.1274999999999999,0.066520176827907562,
,,,3.1299999999999999,0.066760584712028503,
,,,3.1324999999999998,0.06673654168844223,
,,,3.1349999999999998,0.066015325486660004,
,,,3.1375000000000002,0.065390273928642273,
,,,3.1400000000000001,0.064645014703273773,
,,,3.1425000000000001,0.063899755477905273,
,,,3.145,0.062577530741691589,
,,,3.1475,0.06216883659362793,
,,,3.1499999999999999,0.061976514756679535,
,,,3.1524999999999999,0.061976514756679535,
,,,3.1549999999999998,0.062601566314697266,
,,,3.1575000000000002,0.063058339059352875,
,,,3.1600000000000001,0.063491068780422211,
,,,3.1625000000000001,0.063851676881313324,
,,,3.165,0.063899755477905273,
,,,3.1675,0.06353914737701416,
,,,3.1699999999999999,0.062890052795410156,
,,,3.1724999999999999,0.06200055405497551,
,,,3.1749999999999998,0.05983690544962883,
,,,3.1775000000000002,0.058706998825073242,
,,,3.1800000000000002,0.057697296142578125,
,,,3.1825000000000001,0.056855879724025726,
,,,3.1850000000000001,0.055894255638122559,
,,,3.1875,0.055798094719648361,
,,,3.1899999999999999,0.055918298661708832,
,,,3.1924999999999999,0.056158702820539474,
,,,3.1949999999999998,0.05675971508026123,
,,,3.1974999999999998,0.056928001344203949,
,,,3.2000000000000002,0.056952040642499924,
,,,3.2025000000000001,0.056807797402143478,
,,,3.2050000000000001,0.056158702820539474,
,,,3.2075,0.055774055421352386,
,,,3.21,0.055461525917053223,
,,,3.2124999999999999,0.055293243378400803,
,,,3.2149999999999999,0.055413447320461273,
,,,3.2174999999999998,0.055653851479291916,
,,,3.2200000000000002,0.055918298661708832,
,,,3.2225000000000001,0.0561346635222435,
,,,3.2250000000000001,0.056158702820539474,
,,,3.2275,0.055870216339826584,
,,,3.23,0.055413447320461273,
,,,3.2324999999999999,0.054788392037153244,
,,,3.2349999999999999,0.053297877311706543,
,,,3.2374999999999998,0.052528582513332367,
,,,3.2400000000000002,0.051831405609846115,
,,,3.2425000000000002,0.051230393350124359,
,,,3.2450000000000001,0.050292812287807465,
,,,3.2475000000000001,0.049956243485212326,
,,,3.25,0.049715839326381683,
,,,3.2524999999999999,0.049571596086025238,
,,,3.2549999999999999,0.049499474465847015,
,,,3.2574999999999998,0.049595635384321213,
,,,3.2599999999999998,0.049715839326381683,
,,,3.2625000000000002,0.049908161163330078,
,,,3.2650000000000001,0.050388973206281662,
,,,3.2675000000000001,0.050653420388698578,
,,,3.27,0.050845742225646973,
,,,3.2725,0.050989985466003418,
,,,3.2749999999999999,0.050917863845825195,
,,,3.2774999999999999,0.050701498985290527,
,,,3.2799999999999998,0.050340890884399414,
,,,3.2825000000000002,0.049908161163330078,
,,,3.2850000000000001,0.048970580101013184,
,,,3.2875000000000001,0.048585932701826096,
,,,3.29,0.048297446221113205,
,,,3.2925,0.04815320298075676,
,,,3.2949999999999999,0.048032999038696289,
,,,3.2974999999999999,0.047888755798339844,
,,,3.2999999999999998,0.04752814769744873,
,,,3.3025000000000002,0.046830974519252777,
,,,3.3050000000000002,0.044018231332302094,
,,,3.3075000000000001,0.041878622025251389,
,,,3.3100000000000001,0.039282243698835373,
,,,3.3125,0.036373339593410492,
,,,3.3149999999999999,0.030387243255972862,
,,,3.3174999999999999,0.027742784470319748,
,,,3.3199999999999998,0.025603175163269043,
,,,3.3224999999999998,0.02416074275970459,
,,,3.3250000000000002,0.023679932579398155,
,,,3.3275000000000001,0.024641554802656174,
,,,3.3300000000000001,0.026300352066755295,
,,,3.3325,0.030675729736685753,
,,,3.335,0.032839380204677582,
,,,3.3374999999999999,0.034522216767072678,
,,,3.3399999999999999,0.035411715507507324,
,,,3.3424999999999998,0.035267472267150879,
,,,3.3450000000000002,0.031084418296813965,
,,,3.3475000000000001,0.026949446648359299,
,,,3.3500000000000001,0.021564364433288574,
,,,3.3525,0.0079574193805456161,
,,,3.355,0.00040868920041248202,
,,,3.3574999999999999,-0.0070679187774658203,
,,,3.3599999999999999,-0.014063715934753418,
,,,3.3624999999999998,-0.020121932029724121,
,,,3.3650000000000002,-0.027887027710676193,
,,,3.3675000000000002,-0.02906501293182373,
,,,3.3700000000000001,-0.028319757431745529,
,,,3.3725000000000001,-0.021227797493338585,
,,,3.375,-0.015434026718139648,
,,,3.3774999999999999,-0.0086065139621496201,
,,,3.3799999999999999,-0.0011779865017160773,
,,,3.3824999999999998,0.013775229454040527,
,,,3.3849999999999998,0.020650824531912804,
,,,3.3875000000000002,0.026901364326477051,
,,,3.3900000000000001,0.032406650483608246,
,,,3.3925000000000001,0.037214756011962891,
,,,3.395,0.04507601261138916,
,,,3.3975,0.04827340692281723,
,,,3.3999999999999999,0.050989985466003418,
,,,3.4024999999999999,0.054523944854736328,
,,,3.4049999999999998,0.055004756897687912,
,,,3.4075000000000002,0.054355662316083908,
,,,3.4100000000000001,0.052480500191450119,
,,,3.4125000000000001,0.045556824654340744,
,,,3.415,0.04137377068400383,
,,,3.4175,0.037695568054914474,
,,,3.4199999999999999,0.035580001771450043,
,,,3.4224999999999999,0.040604472160339355,
,,,3.4249999999999998,0.049908161163330078,
,,,3.4275000000000002,0.064693093299865723,
,,,3.4300000000000002,0.085055433213710785,
,,,3.4325000000000001,0.11051436513662338,
,,,3.4350000000000001,0.17136096954345703,
,,,3.4375,0.20237326622009277,
,,,3.4399999999999999,0.22997181117534637,
,,,3.4424999999999999,0.26144087314605713,
,,,3.4449999999999998,0.25831562280654907,
,,,3.4474999999999998,0.23836195468902588,
,,,3.4500000000000002,0.19891142845153809,
,,,3.4525000000000001,0.055269204080104828,
,,,3.4550000000000001,-0.049162905663251877,
,,,3.4575,-0.17311593890190125,
,,,3.46,-0.31286358833312988,
,,,3.4624999999999999,-0.61649560928344727,
,,,3.4649999999999999,-0.76523447036743164,
,,,3.4674999999999998,-0.90031826496124268,
,,,3.4700000000000002,-1.0129001140594482,
,,,3.4725000000000001,-1.1398582458496094,
,,,3.4750000000000001,-1.1437046527862549,
,,,3.4775,-1.1052157878875732,
,,,3.48,-1.0264109373092651,
,,,3.4824999999999999,-0.77061951160430908,
,,,3.4849999999999999,-0.61099034547805786,
,,,3.4874999999999998,-0.44405281543731689,
,,,3.4900000000000002,-0.28038483858108521,
,,,3.4925000000000002,0.0011779865017160773,
,,,3.4950000000000001,0.10645151138305664,
,,,3.4975000000000001,0.18403033912181854,
,,,3.5,0.23429910838603973,
,,,3.5024999999999999,0.26495081186294556,
,,,3.5049999999999999,0.25482973456382751,
,,,3.5074999999999998,0.23485204577445984,
,,,3.5099999999999998,0.20997008681297302,
,,,3.5125000000000002,0.1605667769908905,
,,,3.5150000000000001,0.14056503772735596,
,,,3.5175000000000001,0.12489061057567596,
,,,3.52,0.11330306529998779,
,,,3.5225,0.09909510612487793,
,,,3.5249999999999999,0.094551444053649902,
,,,3.5274999999999999,0.090656876564025879,
,,,3.5299999999999998,0.086906552314758301,
,,,3.5325000000000002,0.083108149468898773,
,,,3.5350000000000001,0.075391136109828949,
,,,3.5375000000000001,0.071736976504325867,
,,,3.54,0.068395338952541351,
,,,3.5425,0.062841974198818207,
,,,3.5449999999999999,0.060534082353115082,
,,,3.5474999999999999,0.058394473046064377,
,,,3.5499999999999998,0.056326985359191895,
,,,3.5525000000000002,0.052047770470380783,
,,,3.5550000000000002,0.049787960946559906,
,,,3.5575000000000001,0.047456026077270508,
,,,3.5600000000000001,0.045124094933271408,
,,,3.5625,0.040772758424282074,
,,,3.5649999999999999,0.038873553276062012,
,,,3.5674999999999999,0.037190716713666916,
,,,3.5699999999999998,0.035772323608398438,
,,,3.5724999999999998,0.033440392464399338,
,,,3.5750000000000002,0.032382607460021973,
,,,3.5775000000000001,0.031300783157348633,
,,,3.5800000000000001,0.030074715614318848,
,,,3.5825,0.027021568268537521,
,,,3.585,0.025146406143903732,
,,,3.5874999999999999,0.02307891845703125,
,,,3.5899999999999999,0.020843148231506348,
,,,3.5924999999999998,0.016203325241804123,
,,,3.5950000000000002,0.013895432464778423,
,,,3.5975000000000001,0.011659662239253521,
,,,3.6000000000000001,0.0094719734042882919,
,,,3.6025,0.0051927566528320312,
,,,3.605,0.0030531487427651882,
,,,3.6074999999999999,0.00084141892148181796,
,,,3.6099999999999999,-0.001466472982428968,
,,,3.6124999999999998,-0.0065871081314980984,
,,,3.6150000000000002,-0.0093998517841100693,
,,,3.6175000000000002,-0.01245300006121397,
,,,3.6200000000000001,-0.01567443273961544,
,,,3.6225000000000001,-0.022598108276724815,
,,,3.625,-0.026252269744873047,
,,,3.6274999999999999,-0.030002593994140625,
,,,3.6299999999999999,-0.033825039863586426,
,,,3.6324999999999998,-0.041782461106777191,
,,,3.6349999999999998,-0.045965515077114105,
,,,3.6375000000000002,-0.050364933907985687,
,,,3.6400000000000001,-0.055028796195983887,
,,,3.6425000000000001,-0.065342187881469727,
,,,3.645,-0.07106383889913559,
,,,3.6475,-0.077146098017692566,
,,,3.6499999999999999,-0.083613000810146332,
,,,3.6524999999999999,-0.097484394907951355,
,,,3.6549999999999998,-0.10481675714254379,
,,,3.6575000000000002,-0.1123654842376709,
,,,3.6600000000000001,-0.12008249759674072,
,,,3.6625000000000001,-0.13587713241577148,
,,,3.665,-0.14393071830272675,
,,,3.6675,-0.15208046138286591,
,,,3.6699999999999999,-0.16032636165618896,
,,,3.6724999999999999,-0.17710666358470917,
,,,3.6749999999999998,-0.18564105033874512,
,,,3.6775000000000002,-0.19422352313995361,
,,,3.6800000000000002,-0.20275792479515076,
,,,3.6825000000000001,-0.21915356814861298,
,,,3.6850000000000001,-0.22670230269432068,
,,,3.6875,-0.23352980613708496,
,,,3.6899999999999999,-0.23946782946586609,
,,,3.6924999999999999,-0.24824261665344238,
,,,3.6949999999999998,-0.25095921754837036,
,,,3.6974999999999998,-0.25252184271812439,
,,,3.7000000000000002,-0.25302669405937195,
,,,3.7025000000000001,-0.25105535984039307,
,,,3.7050000000000001,-0.2486032247543335,
,,,3.7075,-0.24518947303295135,
,,,3.71,-0.24069389700889587,
,,,3.7124999999999999,-0.22824089229106903,
,,,3.7149999999999999,-0.22004306316375732,
,,,3.7174999999999998,-0.21047493815422058,
,,,3.7200000000000002,-0.19953648746013641,
,,,3.7225000000000001,-0.18727581202983856,
,,,3.7250000000000001,-0.15936474502086639,
,,,3.7275,-0.14412304759025574,
,,,3.73,-0.12837648391723633,
,,,3.7324999999999999,-0.096378527581691742,
,,,3.7349999999999999,-0.08063197135925293,
,,,3.7374999999999998,-0.06531815230846405,
,,,3.7400000000000002,-0.050557255744934082,
,,,3.7425000000000002,-0.023030837997794151,
,,,3.7450000000000001,-0.01031339168548584,
,,,3.7475000000000001,0.0017309188842773438,
,,,3.75,0.013078054413199425,
,,,3.7524999999999999,0.033825039863586426,
,,,3.7549999999999999,0.043200850486755371,
,,,3.7574999999999998,0.051927566528320312,
,,,3.7599999999999998,0.059933066368103027,
,,,3.7625000000000002,0.067217350006103516,
,,,3.7650000000000001,0.079574190080165863,
,,,3.7675000000000001,0.084598660469055176,
,,,3.77,0.088853836059570312,
,,,3.7725,0.095152460038661957,
,,,3.7749999999999999,0.097219944000244141,
,,,3.7774999999999999,0.098662376403808594,
,,,3.7799999999999998,0.099503800272941589,
,,,3.7825000000000002,0.099936529994010925,
,,,3.7850000000000001,0.099816322326660156,
,,,3.7875000000000001,0.099624000489711761,
,,,3.79,0.099527835845947266,
,,,3.7925,0.099960565567016602,
,,,3.7949999999999999,0.10056158155202866,
,,,3.7974999999999999,0.10135491937398911,
,,,3.7999999999999998,0.10234057903289795,
,,,3.8025000000000002,0.10438402742147446,
,,,3.8050000000000002,0.1052735298871994,
,,,3.8075000000000001,0.10599474608898163,
,,,3.8100000000000001,0.10645151138305664,
,,,3.8125,0.10654767602682114,
,,,3.8149999999999999,0.10613898932933807,
,,,3.8174999999999999,0.1054658517241478,
,,,3.8199999999999998,0.10455231368541718,
,,,3.8224999999999998,0.102292500436306,
,,,3.8250000000000002,0.10113855451345444,
,,,3.8275000000000001,0.10010480880737305,
,,,3.8300000000000001,0.099287435412406921,
,,,3.8325,0.098542176187038422,
,,,3.835,0.098686419427394867,
,,,3.8374999999999999,0.099143192172050476,
,,,3.8399999999999999,0.099840365350246429,
,,,3.8424999999999998,0.10159532725811005,
,,,3.8450000000000002,0.10243674367666245,
,,,3.8475000000000001,0.1031339168548584,
,,,3.8500000000000001,0.10363876819610596,
,,,3.8525,0.10397534072399139,
,,,3.855,0.10383109748363495,
,,,3.8574999999999999,0.10354261100292206,
,,,3.8599999999999999,0.10318200290203094,
,,,3.8624999999999998,0.10243674367666245,
,,,3.8650000000000002,0.10214825719594955,
,,,3.8675000000000002,0.10190784931182861,
,,,3.8700000000000001,0.10169148445129395,
,,,3.8725000000000001,0.10106643289327621,
,,,3.875,0.10051350295543671,
,,,3.8774999999999999,0.099744200706481934,
,,,3.8799999999999999,0.09871046245098114,
,,,3.8824999999999998,0.095945797860622406,
,,,3.8849999999999998,0.094335079193115234,
,,,3.8875000000000002,0.092676281929016113,
,,,3.8900000000000001,0.091065570712089539,
,,,3.8925000000000001,0.088276863098144531,
,,,3.895,0.087195038795471191,
,,,3.8975,0.08632957935333252,
,,,3.8999999999999999,0.085704527795314789,
,,,3.9024999999999999,0.085103511810302734,
,,,3.9049999999999998,0.085103511810302734,
,,,3.9075000000000002,0.085223719477653503,
,,,3.9100000000000001,0.085464119911193848,
,,,3.9125000000000001,0.085993014276027679,
,,,3.915,0.086089178919792175,
,,,3.9175,0.085993014276027679,
,,,3.9199999999999999,0.085632406175136566,
,,,3.9224999999999999,0.083997651934623718,
,,,3.9249999999999998,0.082771584391593933,
,,,3.9275000000000002,0.081377230584621429,
,,,3.9300000000000002,0.079910755157470703,
,,,3.9325000000000001,0.077194176614284515,
,,,3.9350000000000001,0.076112352311611176,
,,,3.9375,0.075270935893058777,
,,,3.9399999999999999,0.074717998504638672,
,,,3.9424999999999999,0.074285268783569336,
,,,3.9449999999999998,0.074285268783569336,
,,,3.9474999999999998,0.074381433427333832,
,,,3.9500000000000002,0.074477598071098328,
,,,3.9525000000000001,0.07454971969127655,
,,,3.9550000000000001,0.074453555047512054,
,,,3.9575,0.074237190186977386,
,,,3.96,0.073900625109672546,
,,,3.9624999999999999,0.072939001023769379,
,,,3.9649999999999999,0.072362028062343597,
,,,3.9674999999999998,0.071712933480739594,
,,,3.9700000000000002,0.071111917495727539,
,,,3.9725000000000001,0.070006057620048523,
,,,3.9750000000000001,0.069597363471984863,
,,,3.9775,0.069332920014858246,
,,,3.98,0.069212719798088074,
,,,3.9824999999999999,0.069477163255214691,
,,,3.9849999999999999,0.069813728332519531,
,,,3.9874999999999998,0.070246458053588867,
,,,3.9900000000000002,0.070703230798244476,
,,,3.9925000000000002,0.071328282356262207,
,,,3.9950000000000001,0.071304246783256531,
,,,3.9975000000000001,0.070967674255371094,
,,,4,0.07031857967376709,66.852371215820312
,,,4.0025000000000004,0.068106852471828461,
,,,4.0049999999999999,0.066712498664855957,
,,,4.0075000000000003,0.065294109284877777,
,,,4.0099999999999998,0.063995920121669769,
,,,4.0125000000000002,0.062048636376857758,
,,,4.0149999999999997,0.061495702713727951,
,,,4.0175000000000001,0.061255298554897308,
,,,4.0199999999999996,0.061231255531311035,
,,,4.0225,0.061543785035610199,
,,,4.0250000000000004,0.061712067574262619,
,,,4.0274999999999999,0.061784189194440842,
,,,4.0300000000000002,0.061688028275966644,
,,,4.0324999999999998,0.060942769050598145,
,,,4.0350000000000001,0.060269635170698166,
,,,4.0374999999999996,0.059428215026855469,
,,,4.04,0.058466594666242599,
,,,4.0425000000000004,0.05647122859954834,
,,,4.0449999999999999,0.055581729859113693,
,,,4.0475000000000003,0.054860513657331467,
,,,4.0499999999999998,0.054379701614379883,
,,,4.0525000000000002,0.054283540695905685,
,,,4.0549999999999997,0.054620109498500824,
,,,4.0575000000000001,0.055173039436340332,
,,,4.0599999999999996,0.055846177041530609,
,,,4.0625,0.057072244584560394,
,,,4.0650000000000004,0.057432852685451508,
,,,4.0674999999999999,0.05755305290222168,
,,,4.0700000000000003,0.05738477036356926,
,,,4.0724999999999998,0.056182742118835449,
,,,4.0750000000000002,0.055269204080104828,
,,,4.0774999999999997,0.054259501397609711,
,,,4.0800000000000001,0.053273838013410568,
,,,4.0824999999999996,0.051711201667785645,
,,,4.085,0.051254432648420334,
,,,4.0875000000000004,0.051038067787885666,
,,,4.0899999999999999,0.051014028489589691,
,,,4.0925000000000002,0.051302514970302582,
,,,4.0949999999999998,0.051446758210659027,
,,,4.0975000000000001,0.05151887983083725,
,,,4.0999999999999996,0.051446758210659027,
,,,4.1025,0.050965946167707443,
,,,4.1050000000000004,0.050677459686994553,
,,,4.1074999999999999,0.05043705552816391,
,,,4.1100000000000003,0.050268769264221191,
,,,4.1124999999999998,0.050268769264221191,
,,,4.1150000000000002,0.050340890884399414,
,,,4.1174999999999997,0.050413012504577637,
,,,4.1200000000000001,0.050364933907985687,
,,,4.1224999999999996,0.049787960946559906,
,,,4.125,0.049259066581726074,
,,,4.1275000000000004,0.04860997200012207,
,,,4.1299999999999999,0.047936838120222092,
,,,4.1325000000000003,0.046879053115844727,
,,,4.1349999999999998,0.046662688255310059,
,,,4.1375000000000002,0.046686731278896332,
,,,4.1399999999999997,0.046951174736022949,
,,,4.1425000000000001,0.047864716500043869,
,,,4.1449999999999996,0.04832148551940918,
,,,4.1475,0.048585932701826096,
,,,4.1500000000000004,0.048561893403530121,
,,,4.1524999999999999,0.047215621918439865,
,,,4.1550000000000002,0.045869350433349609,
,,,4.1574999999999998,0.044042270630598068,
,,,4.1600000000000001,0.041854582726955414,
,,,4.1624999999999996,0.036830108612775803,
,,,4.165,0.034281812608242035,
,,,4.1675000000000004,0.031853716820478439,
,,,4.1699999999999999,0.02969006821513176,
,,,4.1725000000000003,0.026420554146170616,
,,,4.1749999999999998,0.025410851463675499,
,,,4.1775000000000002,0.024785798043012619,
,,,4.1799999999999997,0.024569433182477951,
,,,4.1825000000000001,0.025098323822021484,
,,,4.1849999999999996,0.025771459564566612,
,,,4.1875,0.026636919006705284,
,,,4.1900000000000004,0.027574500069022179,
,,,4.1924999999999999,0.029209256172180176,
,,,4.1950000000000003,0.029593905434012413,
,,,4.1974999999999998,0.029449662193655968,
,,,4.2000000000000002,0.02860824391245842,
,,,4.2024999999999997,0.024232864379882812,
,,,4.2050000000000001,0.020530622452497482,
,,,4.2074999999999996,0.015866756439208984,
,,,4.21,0.01031339168548584,
,,,4.2125000000000004,-0.0025723378639668226,
,,,4.2149999999999999,-0.0093277301639318466,
,,,4.2175000000000002,-0.015794634819030762,
,,,4.2199999999999998,-0.021540325134992599,
,,,4.2225000000000001,-0.029425621032714844,
,,,4.2249999999999996,-0.030892094597220421,
,,,4.2275,-0.030459364876151085,
,,,4.2300000000000004,-0.028103392571210861,
,,,4.2324999999999999,-0.018102526664733887,
,,,4.2350000000000003,-0.011034607887268066,
,,,4.2374999999999998,-0.0031012296676635742,
,,,4.2400000000000002,0.0052167973481118679,
,,,4.2424999999999997,0.021468203514814377,
,,,4.2450000000000001,0.028752487152814865,
,,,4.2474999999999996,0.035219393670558929,
,,,4.25,0.040772758424282074,
,,,4.2525000000000004,0.049138866364955902,
,,,4.2549999999999999,0.051999688148498535,
,,,4.2575000000000003,0.05397101491689682,
,,,4.2599999999999998,0.05505283921957016,
,,,4.2625000000000002,0.054235458374023438,
,,,4.2649999999999997,0.052192013710737228,
,,,4.2675000000000001,0.049066744744777679,
,,,4.2699999999999996,0.045051973313093185,
,,,4.2725,0.036036770790815353,
,,,4.2750000000000004,0.032454729080200195,
,,,4.2774999999999999,0.030747851356863976,
,,,4.2800000000000002,0.031949877738952637,
,,,4.2824999999999998,0.046975217759609222,
,,,4.2850000000000001,0.062096714973449707,
,,,4.2874999999999996,0.082386933267116547,
,,,4.29,0.10726889222860336,
,,,4.2925000000000004,0.16518256068229675,
,,,4.2949999999999999,0.19381484389305115,
,,,4.2975000000000003,0.2184804379940033,
,,,4.2999999999999998,0.23588578402996063,
,,,4.3025000000000002,0.23521265387535095,
,,,4.3049999999999997,0.21076342463493347,
,,,4.3075000000000001,0.16674518585205078,
,,,4.3099999999999996,0.10152320563793182,
,,,4.3125,-0.09301285445690155,
,,,4.3150000000000004,-0.21884104609489441,
,,,4.3174999999999999,-0.35863679647445679,
,,,4.3200000000000003,-0.50643801689147949,
,,,4.3224999999999998,-0.79530918598175049,
,,,4.3250000000000002,-0.91899776458740234,
,,,4.3274999999999997,-1.0172995328903198,
,,,4.3300000000000001,-1.0826897621154785,
,,,4.3324999999999996,-1.0954793691635132,
,,,4.335,-1.0401380062103271,
,,,4.3375000000000004,-0.94710111618041992,
,,,4.3399999999999999,-0.82261919975280762,
,,,4.3425000000000002,-0.51562154293060303,
,,,4.3449999999999998,-0.3539729118347168,
,,,4.3475000000000001,-0.20057022571563721,
,,,4.3499999999999996,-0.06394784152507782,
,,,4.3525,0.13657431304454803,
,,,4.3550000000000004,0.19614677131175995,
,,,4.3574999999999999,0.23011605441570282,
,,,4.3600000000000003,0.2422565221786499,
,,,4.3624999999999998,0.22189418971538544,
,,,4.3650000000000002,0.20025770366191864,
,,,4.3674999999999997,0.17727494239807129,
,,,4.3700000000000001,0.15626351535320282,
,,,4.3724999999999996,0.12686192989349365,
,,,4.375,0.11883239448070526,
,,,4.3775000000000004,0.11416852474212646,
,,,4.3799999999999999,0.11147598922252655,
,,,4.3825000000000003,0.1070525273680687,
,,,4.3849999999999998,0.10356664657592773,
,,,4.3875000000000002,0.098734498023986816,
,,,4.3899999999999997,0.09272436797618866,
,,,4.3925000000000001,0.078852973878383636,
,,,4.3949999999999996,0.072049498558044434,
,,,4.3975,0.065919160842895508,
,,,4.4000000000000004,0.060726404190063477,
,,,4.4024999999999999,0.053345959633588791,
,,,4.4050000000000002,0.050893824547529221,
,,,4.4074999999999998,0.048970580101013184,
,,,4.4100000000000001,0.047311782836914062,
,,,4.4124999999999996,0.043922066688537598,
,,,4.415,0.041926704347133636,
,,,4.4175000000000004,0.039666891098022461,
,,,4.4199999999999999,0.037190716713666916,
,,,4.4225000000000003,0.031925838440656662,
,,,4.4249999999999998,0.029353499412536621,
,,,4.4275000000000002,0.026877325028181076,
,,,4.4299999999999997,0.02461751364171505,
,,,4.4325000000000001,0.020650824531912804,
,,,4.4349999999999996,0.018895864486694336,
,,,4.4375,0.017164945602416992,
,,,4.4400000000000004,0.015434026718139648,
,,,4.4424999999999999,0.011659662239253521,
,,,4.4450000000000003,0.0095681352540850639,
,,,4.4474999999999998,0.0073083243332803249,
,,,4.4500000000000002,0.0049283108673989773,
,,,4.4524999999999997,-7.2121620178222656e-05,
,,,4.4550000000000001,-0.0025723378639668226,
,,,4.4574999999999996,-0.0050244731828570366,
,,,4.46,-0.0073804459534585476,
,,,4.4625000000000004,-0.011755824089050293,
,,,4.4649999999999999,-0.013799270614981651,
,,,4.4675000000000002,-0.01584271714091301,
,,,4.4699999999999998,-0.017934244126081467,
,,,4.4725000000000001,-0.022622149437665939,
,,,4.4749999999999996,-0.025338729843497276,
,,,4.4775,-0.028415918350219727,
,,,4.4800000000000004,-0.031853716820478439,
,,,4.4824999999999999,-0.039642851799726486,
,,,4.4850000000000003,-0.043922066688537598,
,,,4.4874999999999998,-0.048369567841291428,
,,,4.4900000000000002,-0.052961312234401703,
,,,4.4924999999999997,-0.062601566314697266,
,,,4.4950000000000001,-0.067674122750759125,
,,,4.4974999999999996,-0.073035165667533875,
,,,4.5,-0.078732773661613464,
,,,4.5025000000000004,-0.091378092765808105,
,,,4.5049999999999999,-0.098397932946681976,
,,,4.5075000000000003,-0.10585050284862518,
,,,4.5099999999999998,-0.1137598380446434,
,,,4.5125000000000002,-0.13061225414276123,
,,,4.5149999999999997,-0.13945917785167694,
,,,4.5175000000000001,-0.1484503448009491,
,,,4.5199999999999996,-0.15753766894340515,
,,,4.5225,-0.17551998794078827,
,,,4.5250000000000004,-0.18422266840934753,
,,,4.5274999999999999,-0.19258877635002136,
,,,4.5300000000000002,-0.20057022571563721,
,,,4.5324999999999998,-0.21521091461181641,
,,,4.5350000000000001,-0.22182206809520721,
,,,4.5374999999999996,-0.22802452743053436,
,,,4.54,-0.23381829261779785,
,,,4.5425000000000004,-0.24434804916381836,
,,,4.5449999999999999,-0.2491561621427536,
,,,4.5475000000000003,-0.25360366702079773,
,,,4.5499999999999998,-0.25771459937095642,
,,,4.5525000000000002,-0.26442191004753113,
,,,4.5549999999999997,-0.26680192351341248,
,,,4.5575000000000001,-0.26831647753715515,
,,,4.5599999999999996,-0.26879727840423584,
,,,4.5625,-0.26588839292526245,
,,,4.5650000000000004,-0.26216208934783936,
,,,4.5674999999999999,-0.2568010687828064,
,,,4.5700000000000003,-0.24975717067718506,
,,,4.5724999999999998,-0.23081323504447937,
,,,4.5750000000000002,-0.21917760372161865,
,,,4.5774999999999997,-0.20636400580406189,
,,,4.5800000000000001,-0.19261281192302704,
,,,4.5824999999999996,-0.16337952017784119,
,,,4.585,-0.14833013713359833,
,,,4.5875000000000004,-0.13330480456352234,
,,,4.5899999999999999,-0.1184237003326416,
,,,4.5925000000000002,-0.089575052261352539,
,,,4.5949999999999998,-0.075727701187133789,
,,,4.5975000000000001,-0.062265001237392426,
,,,4.5999999999999996,-0.049235027283430099,
,,,4.6025,-0.02428094670176506,
,,,4.6050000000000004,-0.012380878441035748,
,,,4.6074999999999999,-0.0008895000210031867,
,,,4.6100000000000003,0.010097026824951172,
,,,4.6124999999999998,0.030194919556379318,
,,,4.6150000000000002,0.039017796516418457,
,,,4.6174999999999997,0.046879053115844727,
,,,4.6200000000000001,0.053682528436183929,
,,,4.6224999999999996,0.064043998718261719,
,,,4.625,0.067722201347351074,
,,,4.6275000000000004,0.070534944534301758,
,,,4.6299999999999999,0.072650514543056488,
,,,4.6325000000000003,0.075655579566955566,
,,,4.6349999999999998,0.076881647109985352,
,,,4.6375000000000002,0.07813175767660141,
,,,4.6399999999999997,0.07950206845998764,
,,,4.6425000000000001,0.082771584391593933,
,,,4.6449999999999996,0.084622703492641449,
,,,4.6475,0.086569987237453461,
,,,4.6500000000000004,0.088469192385673523,
,,,4.6524999999999999,0.091858908534049988,
,,,4.6550000000000002,0.093181133270263672,
,,,4.6574999999999998,0.094238921999931335,
,,,4.6600000000000001,0.095008216798305511,
,,,4.6624999999999996,0.095897719264030457,
,,,4.665,0.096114084124565125,
,,,4.6675000000000004,0.09625832736492157,
,,,4.6699999999999999,0.096354484558105469,
,,,4.6725000000000003,0.096450649201869965,
,,,4.6749999999999998,0.096402570605278015,
,,,4.6775000000000002,0.09625832736492157,
,,,4.6799999999999997,0.095969840884208679,
,,,4.6825000000000001,0.095128417015075684,
,,,4.6849999999999996,0.094599530100822449,
,,,4.6875,0.094070635735988617,
,,,4.6900000000000004,0.093589827418327332,
,,,4.6924999999999999,0.092916689813137054,
,,,4.6950000000000003,0.092772446572780609,
,,,4.6974999999999998,0.09272436797618866,
,,,4.7000000000000002,0.092748403549194336,
,,,4.7024999999999997,0.092940732836723328,
,,,4.7050000000000001,0.092988811433315277,
,,,4.7074999999999996,0.092964768409729004,
,,,4.71,0.092820525169372559,
,,,4.7125000000000004,0.091955065727233887,
,,,4.7149999999999999,0.091185770928859711,
,,,4.7175000000000002,0.090103946626186371,
,,,4.7199999999999998,0.088757678866386414,
,,,4.7225000000000001,0.085295841097831726,
,,,4.7249999999999996,0.083300471305847168,
,,,4.7275,0.081208944320678711,
,,,4.7300000000000004,0.079189538955688477,
,,,4.7324999999999999,0.07563154399394989,
,,,4.7350000000000003,0.07426123321056366,
,,,4.7374999999999998,0.073275566101074219,
,,,4.7400000000000002,0.072674557566642761,
,,,4.7424999999999997,0.072506271302700043,
,,,4.7450000000000001,0.07277071475982666,
,,,4.7474999999999996,0.073155365884304047,
,,,4.75,0.07346789538860321,
,,,4.7525000000000004,0.073491930961608887,
,,,4.7549999999999999,0.072963044047355652,
,,,4.7575000000000003,0.072001419961452484,
,,,4.7599999999999998,0.070655152201652527,
,,,4.7625000000000002,0.067049071192741394,
,,,4.7649999999999997,0.06502966582775116,
,,,4.7675000000000001,0.063106417655944824,
,,,4.7699999999999996,0.06137549877166748,
,,,4.7725,0.05892336368560791,
,,,4.7750000000000004,0.058298312127590179,
,,,4.7774999999999999,0.058033864945173264,
,,,4.7800000000000002,0.058154068887233734,
,,,4.7824999999999998,0.059139728546142578,
,,,4.7850000000000001,0.059884987771511078,
,,,4.7874999999999996,0.060702364891767502,
,,,4.79,0.061519742012023926,
,,,4.7925000000000004,0.062890052795410156,
,,,4.7949999999999999,0.063322782516479492,
,,,4.7975000000000003,0.063587233424186707,
,,,4.7999999999999998,0.063635312020778656,
,,,4.8025000000000002,0.063058339059352875,
,,,4.8049999999999997,0.062529444694519043,
,,,4.8075000000000001,0.061856310814619064,
,,,4.8099999999999996,0.061135094612836838,
,,,4.8125,0.059740744531154633,
,,,4.8150000000000004,0.059163771569728851,
,,,4.8174999999999999,0.058731041848659515,
,,,4.8200000000000003,0.058466594666242599,
,,,4.8224999999999998,0.058466594666242599,
,,,4.8250000000000002,0.058731041848659515,
,,,4.8274999999999997,0.059091649949550629,
,,,4.8300000000000001,0.059548418968915939,
,,,4.8324999999999996,0.060341756790876389,
,,,4.835,0.060606203973293304,
,,,4.8375000000000004,0.060726404190063477,
,,,4.8399999999999999,0.060726404190063477,
,,,4.8425000000000002,0.060461960732936859,
,,,4.8449999999999998,0.060269635170698166,
,,,4.8475000000000001,0.060077309608459473,
,,,4.8499999999999996,0.059909027069807053,
,,,4.8525,0.059572458267211914,
,,,4.8550000000000004,0.059356093406677246,
,,,4.8574999999999999,0.059019528329372406,
,,,4.8600000000000003,0.05858679860830307,
,,,4.8624999999999998,0.057408809661865234,
,,,4.8650000000000002,0.05675971508026123,
,,,4.8674999999999997,0.056158702820539474,
,,,4.8700000000000001,0.055677890777587891,
,,,4.8724999999999996,0.055317282676696777,
,,,4.875,0.055461525917053223,
,,,4.8775000000000004,0.055822134017944336,
,,,4.8799999999999999,0.05630294606089592,
,,,4.8825000000000003,0.057432852685451508,
,,,4.8849999999999998,0.057913661003112793,
,,,4.8875000000000002,0.058250229805707932,
,,,4.8899999999999997,0.058394473046064377,
,,,4.8925000000000001,0.058081947267055511,
,,,4.8949999999999996,0.057625174522399902,
,,,4.8975,0.057024162262678146,
,,,4.9000000000000004,0.05630294606089592,
,,,4.9024999999999999,0.054884552955627441,
,,,4.9050000000000002,0.054259501397609711,
,,,4.9074999999999998,0.053802728652954102,
,,,4.9100000000000001,0.053490202873945236,
,,,4.9124999999999996,0.053297877311706543,
,,,4.915,0.053369998931884766,
,,,4.9175000000000004,0.053442120552062988,
,,,4.9199999999999999,0.053466163575649261,
,,,4.9225000000000003,0.053153634071350098,
,,,4.9249999999999998,0.052696865051984787,
,,,4.9275000000000002,0.052047770470380783,
,,,4.9299999999999997,0.051182311028242111,
,,,4.9325000000000001,0.048922501504421234,
,,,4.9349999999999996,0.047672390937805176,
,,,4.9375,0.046422284096479416,
,,,4.9400000000000004,0.044258635491132736,
,,,4.9424999999999999,0.043393176048994064,
,,,4.9450000000000003,0.042695999145507812,
,,,4.9474999999999998,0.042119026184082031,
,,,4.9500000000000002,0.040989123284816742,
,,,4.9524999999999997,0.040243864059448242,
,,,4.9550000000000001,0.039258204400539398,
,,,4.9574999999999996,0.03800809383392334,
,,,4.96,0.034834742546081543,
,,,4.9625000000000004,0.033127866685390472,
,,,4.9649999999999999,0.031541191041469574,
,,,4.9675000000000002,0.030267041176557541,
,,,4.9699999999999998,0.029449662193655968,
,,,4.9725000000000001,0.029569864273071289,
,,,4.9749999999999996,0.030507445335388184,
,,,4.9775,0.031901799142360687,
,,,4.9800000000000004,0.035243432968854904,
,,,4.9824999999999999,0.036685865372419357,
,,,4.9850000000000003,0.037599407136440277,
,,,4.9874999999999998,0.037719607353210449,
,,,4.9900000000000002,0.034786663949489594,
,,,4.9924999999999997,0.031541191041469574,
,,,4.9950000000000001,0.027117729187011719,
,,,4.9974999999999996,0.021684568375349045,
,,,5,0.0088709592819213867,67.415733337402344
,,,5.0025000000000004,0.0022357702255249023,
,,,5.0049999999999999,-0.0039907298050820827,
,,,5.0075000000000003,-0.0093758106231689453,
,,,5.0099999999999998,-0.01629948616027832,
,,,5.0125000000000002,-0.017357271164655685,
,,,5.0149999999999997,-0.016684135422110558,
,,,5.0175000000000001,-0.014352202415466309,
,,,5.0199999999999996,-0.0054091215133666992,
,,,5.0225,0.00064909458160400391,
,,,5.0250000000000004,0.0073804459534585476,
,,,5.0274999999999999,0.014448365196585655,
,,,5.0300000000000002,0.02860824391245842,
,,,5.0324999999999998,0.035315554589033127,
,,,5.0350000000000001,0.041662257164716721,
,,,5.0374999999999996,0.047576230019330978,
,,,5.04,0.057889621704816818,
,,,5.0425000000000004,0.062192879617214203,
,,,5.0449999999999999,0.065774917602539062,
,,,5.0475000000000003,0.068443417549133301,
,,,5.0499999999999998,0.070222422480583191,
,,,5.0525000000000002,0.069020390510559082,
,,,5.0549999999999997,0.066351890563964844,
,,,5.0575000000000001,0.062433283776044846,
,,,5.0599999999999996,0.052720904350280762,
,,,5.0625,0.048537850379943848,
,,,5.0650000000000004,0.046133797615766525,
,,,5.0674999999999999,0.046614609658718109,
,,,5.0700000000000003,0.060173474252223969,
,,,5.0724999999999998,0.074525676667690277,
,,,5.0750000000000002,0.093998514115810394,
,,,5.0774999999999997,0.11806309223175049,
,,,5.0800000000000001,0.17446219921112061,
,,,5.0824999999999996,0.20268580317497253,
,,,5.085,0.22727927565574646,
,,,5.0875000000000004,0.24514138698577881,
,,,5.0899999999999999,0.24742524325847626,
,,,5.0925000000000002,0.22557239234447479,
,,,5.0949999999999998,0.18496792018413544,
,,,5.0975000000000001,0.12397706508636475,
,,,5.0999999999999996,-0.059957109391689301,
,,,5.1025,-0.17960688471794128,
,,,5.1050000000000004,-0.31281551718711853,
,,,5.1074999999999999,-0.45390945672988892,
,,,5.1100000000000003,-0.73020738363265991,
,,,5.1124999999999998,-0.84875130653381348,
,,,5.1150000000000002,-0.94313442707061768,
,,,5.1174999999999997,-1.0061447620391846,
,,,5.1200000000000001,-1.0191746950149536,
,,,5.1224999999999996,-0.96628546714782715,
,,,5.125,-0.87683063745498657,
,,,5.1275000000000004,-0.75672411918640137,
,,,5.1299999999999999,-0.45864543318748474,
,,,5.1325000000000003,-0.30072313547134399,
,,,5.1349999999999998,-0.15006105601787567,
,,,5.1375000000000002,-0.015193621627986431,
,,,5.1399999999999997,0.18455922603607178,
,,,5.1425000000000001,0.24454037845134735,
,,,5.1449999999999996,0.2789904773235321,
,,,5.1475,0.29122710227966309,
,,,5.1500000000000004,0.26867708563804626,
,,,5.1524999999999999,0.24442017078399658,
,,,5.1550000000000002,0.21785537898540497,
,,,5.1574999999999998,0.19246856868267059,
,,,5.1600000000000001,0.15316228568553925,
,,,5.1624999999999996,0.14032463729381561,
,,,5.165,0.13135752081871033,
,,,5.1675000000000004,0.12513101100921631,
,,,5.1699999999999999,0.11623601615428925,
,,,5.1725000000000003,0.11176447570323944,
,,,5.1749999999999998,0.10664384067058563,
,,,5.1775000000000002,0.10092218965291977,
,,,5.1799999999999997,0.088685557246208191,
,,,5.1825000000000001,0.083060070872306824,
,,,5.1849999999999996,0.078251957893371582,
,,,5.1875,0.074453555047512054,
,,,5.1900000000000004,0.069813728332519531,
,,,5.1924999999999999,0.06856362521648407,
,,,5.1950000000000003,0.067553922533988953,
,,,5.1974999999999998,0.066496133804321289,
,,,5.2000000000000002,0.063130460679531097,
,,,5.2024999999999997,0.060582160949707031,
,,,5.2050000000000001,0.05750497430562973,
,,,5.2074999999999996,0.053995054215192795,
,,,5.21,0.046518445014953613,
,,,5.2125000000000004,0.04291236400604248,
,,,5.2149999999999999,0.039618812501430511,
,,,5.2175000000000002,0.036733947694301605,
,,,5.2199999999999998,0.032286446541547775,
,,,5.2225000000000001,0.030627649277448654,
,,,5.2249999999999996,0.0292332973331213,
,,,5.2275,0.028007229790091515,
,,,5.2300000000000004,0.025579135864973068,
,,,5.2324999999999999,0.024184783920645714,
,,,5.2350000000000003,0.022574067115783691,
,,,5.2374999999999998,0.02074698731303215,
,,,5.2400000000000002,0.01646777056157589,
,,,5.2424999999999997,0.014015635475516319,
,,,5.2450000000000001,0.011443297378718853,
,,,5.2474999999999996,0.0087507572025060654,
,,,5.25,0.0030291080474853516,
,,,5.2525000000000004,4.8081081331474707e-05,
,,,5.2549999999999999,-0.0030291080474853516,
,,,5.2575000000000003,-0.0061543784104287624,
,,,5.2599999999999998,-0.012501081451773643,
,,,5.2625000000000002,-0.01567443273961544,
,,,5.2649999999999997,-0.018799703568220139,
,,,5.2675000000000001,-0.021973054856061935,
,,,5.2699999999999996,-0.028512081131339073,
,,,5.2725,-0.032094120979309082,
,,,5.2750000000000004,-0.036012731492519379,
,,,5.2774999999999999,-0.040315985679626465,
,,,5.2800000000000002,-0.050340890884399414,
,,,5.2824999999999998,-0.056038498878479004,
,,,5.2850000000000001,-0.06212075799703598,
,,,5.2874999999999996,-0.068491503596305847,
,,,5.29,-0.081737838685512543,
,,,5.2925000000000004,-0.088493227958679199,
,,,5.2949999999999999,-0.095296703279018402,
,,,5.2975000000000003,-0.10212421417236328,
,,,5.2999999999999998,-0.11613985151052475,
,,,5.3025000000000002,-0.12347221374511719,
,,,5.3049999999999997,-0.13109306991100311,
,,,5.3075000000000001,-0.13905048370361328,
,,,5.3099999999999996,-0.15604715049266815,
,,,5.3125,-0.16501426696777344,
,,,5.3150000000000004,-0.17417371273040771,
,,,5.3174999999999999,-0.18338124454021454,
,,,5.3200000000000003,-0.2013154923915863,
,,,5.3224999999999998,-0.20965754985809326,
,,,5.3250000000000002,-0.21739861369132996,
,,,5.3274999999999997,-0.22439441084861755,
,,,5.3300000000000001,-0.23586174845695496,
,,,5.3324999999999996,-0.24030923843383789,
,,,5.335,-0.24389128386974335,
,,,5.3375000000000004,-0.24665594100952148,
,,,5.3399999999999999,-0.2498052567243576,
,,,5.3425000000000002,-0.25018990039825439,
,,,5.3449999999999998,-0.24973313510417938,
,,,5.3475000000000001,-0.24836282432079315,
,,,5.3499999999999996,-0.24252097308635712,
,,,5.3525,-0.23780903220176697,
,,,5.3550000000000004,-0.23177485167980194,
,,,5.3574999999999999,-0.22432228922843933,
,,,5.3600000000000003,-0.20506581664085388,
,,,5.3624999999999998,-0.19328594207763672,
,,,5.3650000000000002,-0.18025597929954529,
,,,5.3674999999999997,-0.16609609127044678,
,,,5.3700000000000001,-0.15109479427337646,
,,,5.3724999999999996,-0.11950552463531494,
,,,5.375,-0.10349452495574951,
,,,5.3775000000000004,-0.087627768516540527,
,,,5.3799999999999999,-0.057096283882856369,
,,,5.3825000000000003,-0.04262387752532959,
,,,5.3849999999999998,-0.028800567612051964,
,,,5.3875000000000002,-0.015626352280378342,
,,,5.3899999999999997,0.0085584325715899467,
,,,5.3925000000000001,0.019472837448120117,
,,,5.3949999999999996,0.029569864273071289,
,,,5.3975,0.038801431655883789,
,,,5.4000000000000004,0.054644148796796799,
,,,5.4024999999999999,0.06137549877166748,
,,,5.4050000000000002,0.067361593246459961,
,,,5.4074999999999998,0.072746679186820984,
,,,5.4100000000000001,0.081954203546047211,
,,,5.4124999999999996,0.085896849632263184,
,,,5.415,0.089454852044582367,
,,,5.4175000000000004,0.092556081712245941,
,,,5.4199999999999999,0.097316108644008636,
,,,5.4225000000000003,0.098902784287929535,
,,,5.4249999999999998,0.099888443946838379,
,,,5.4275000000000002,0.10036925971508026,
,,,5.4299999999999997,0.099960565567016602,
,,,5.4325000000000001,0.099359557032585144,
,,,5.4349999999999996,0.098662376403808594,
,,,5.4375,0.098061367869377136,
,,,5.4400000000000004,0.097580552101135254,
,,,5.4424999999999999,0.097869038581848145,
,,,5.4450000000000003,0.098494097590446472,
,,,5.4474999999999998,0.099431678652763367,
,,,5.4500000000000002,0.10053753852844238,
,,,5.4524999999999997,0.10294159501791,
,,,5.4550000000000001,0.10397534072399139,
,,,5.4574999999999996,0.10484080016613007,
,,,5.46,0.10594666004180908,
,,,5.4625000000000004,0.10625918954610825,
,,,5.4649999999999999,0.10649959743022919,
,,,5.4675000000000002,0.10669191926717758,
,,,5.4699999999999998,0.10710060596466064,
,,,5.4725000000000001,0.10734101384878159,
,,,5.4749999999999996,0.10755737870931625,
,,,5.4775,0.10774970054626465,
,,,5.4800000000000004,0.10794202983379364,
,,,5.4824999999999999,0.10794202983379364,
,,,5.4850000000000003,0.10789394378662109,
,,,5.4874999999999998,0.10784586519002914,
,,,5.4900000000000002,0.10777374356985092,
,,,5.4924999999999997,0.10762950032949448,
,,,5.4950000000000001,0.10746121406555176,
,,,5.4974999999999996,0.10717272758483887,
,,,5.5,0.10592262446880341,
,,,5.5025000000000004,0.10484080016613007,
,,,5.5049999999999999,0.10337432473897934,
,,,5.5075000000000003,0.10157128423452377,
,,,5.5099999999999998,0.097195908427238464,
,,,5.5125000000000002,0.094815894961357117,
,,,5.5149999999999997,0.092532038688659668,
,,,5.5175000000000001,0.090488597750663757,
,,,5.5199999999999996,0.087579689919948578,
,,,5.5225,0.086810395121574402,
,,,5.5250000000000004,0.086473822593688965,
,,,5.5274999999999999,0.086401700973510742,
,,,5.5300000000000002,0.08632957935333252,
,,,5.5324999999999998,0.085896849632263184,
,,,5.5350000000000001,0.085007354617118835,
,,,5.5374999999999996,0.083540879189968109,
,,,5.54,0.079021260142326355,
,,,5.5425000000000004,0.076256595551967621,
,,,5.5449999999999999,0.073443852365016937,
,,,5.5475000000000003,0.070847474038600922,
,,,5.5499999999999998,0.067121192812919617,
,,,5.5525000000000002,0.066279768943786621,
,,,5.5549999999999997,0.066159568727016449,
,,,5.5575000000000001,0.066712498664855957,
,,,5.5599999999999996,0.069308876991271973,
,,,5.5625,0.070991717278957367,
,,,5.5650000000000004,0.072674557566642761,
,,,5.5674999999999999,0.074165068566799164,
,,,5.5700000000000003,0.076088309288024902,
,,,5.5724999999999998,0.076376795768737793,
,,,5.5750000000000002,0.076208516955375671,
,,,5.5774999999999997,0.07563154399394989,
,,,5.5800000000000001,0.073660217225551605,
,,,5.5824999999999996,0.07248222827911377,
,,,5.585,0.07135232537984848,
,,,5.5875000000000004,0.070342622697353363,
,,,5.5899999999999999,0.068948268890380859,
,,,5.5925000000000002,0.068587660789489746,
,,,5.5949999999999998,0.068467460572719574,
,,,5.5975000000000001,0.068467460572719574,
,,,5.5999999999999996,0.068731904029846191,
,,,5.6025,0.06885211169719696,
,,,5.6050000000000004,0.068876147270202637,
,,,5.6074999999999999,0.068804025650024414,
,,,5.6100000000000003,0.068323217332363129,
,,,5.6124999999999998,0.067938566207885742,
,,,5.6150000000000002,0.067553922533988953,
,,,5.6174999999999997,0.067241393029689789,
,,,5.6200000000000001,0.067025028169155121,
,,,5.6224999999999996,0.067217350006103516,
,,,5.625,0.067626044154167175,
,,,5.6275000000000004,0.068203017115592957,
,,,5.6299999999999999,0.069525241851806641,
,,,5.6325000000000003,0.070006057620048523,
,,,5.6349999999999998,0.07027050107717514,
,,,5.6375000000000002,0.070198379456996918,
,,,5.6399999999999997,0.069020390510559082,
,,,5.6425000000000001,0.067986652255058289,
,,,5.6449999999999996,0.06678462028503418,
,,,5.6475,0.065558552742004395,
,,,5.6500000000000004,0.063418947160243988,
,,,5.6524999999999999,0.062721773982048035,
,,,5.6550000000000002,0.0622890405356884,
,,,5.6574999999999998,0.062144797295331955,
,,,5.6600000000000001,0.062409244477748871,
,,,5.6624999999999996,0.062649652361869812,
,,,5.665,0.06286601722240448,
,,,5.6675000000000004,0.062938138842582703,
,,,5.6699999999999999,0.062553487718105316,
,,,5.6725000000000003,0.062072675675153732,
,,,5.6749999999999998,0.061471663415431976,
,,,5.6775000000000002,0.060822568833827972,
,,,5.6799999999999997,0.059716701507568359,
,,,5.6825000000000001,0.059452258050441742,
,,,5.6849999999999996,0.059428215026855469,
,,,5.6875,0.05966862291097641,
,,,5.6900000000000004,0.060726404190063477,
,,,5.6924999999999999,0.061399541795253754,
,,,5.6950000000000003,0.062024593353271484,
,,,5.6974999999999998,0.062553487718105316,
,,,5.7000000000000002,0.062962174415588379,
,,,5.7024999999999997,0.062817931175231934,
,,,5.7050000000000001,0.062433283776044846,
,,,5.7074999999999996,0.061856310814619064,
,,,5.71,0.060245595872402191,
,,,5.7125000000000004,0.059332054108381271,
,,,5.7149999999999999,0.058394473046064377,
,,,5.7175000000000002,0.05755305290222168,
,,,5.7199999999999998,0.056230824440717697,
,,,5.7225000000000001,0.055846177041530609,
,,,5.7249999999999996,0.055653851479291916,
,,,5.7275,0.055677890777587891,
,,,5.7300000000000004,0.056158702820539474,
,,,5.7324999999999999,0.056495271623134613,
,,,5.7350000000000003,0.056831836700439453,
,,,5.7374999999999998,0.057120323181152344,
,,,5.7400000000000002,0.05738477036356926,
,,,5.7424999999999997,0.057312648743391037,
,,,5.7450000000000001,0.057120323181152344,
,,,5.7474999999999996,0.05675971508026123,
,,,5.75,0.055485568940639496,
,,,5.7525000000000004,0.054523944854736328,
,,,5.7549999999999999,0.053321920335292816,
,,,5.7575000000000003,0.05185544490814209,
,,,5.7599999999999998,0.048369567841291428,
,,,5.7625000000000002,0.046470366418361664,
,,,5.7649999999999997,0.044595204293727875,
,,,5.7675000000000001,0.042840242385864258,
,,,5.7699999999999996,0.04017174243927002,
,,,5.7725,0.039402447640895844,
,,,5.7750000000000004,0.03904183954000473,
,,,5.7774999999999999,0.039113961160182953,
,,,5.7800000000000002,0.040219824761152267,
,,,5.7824999999999998,0.041037201881408691,
,,,5.7850000000000001,0.041878622025251389,
,,,5.7874999999999996,0.04257579892873764,
,,,5.79,0.043056607246398926,
,,,5.7925000000000004,0.042599838227033615,
,,,5.7949999999999999,0.041566096246242523,
,,,5.7975000000000003,0.039931338280439377,
,,,5.7999999999999998,0.034690499305725098,
,,,5.8025000000000002,0.031132500618696213,
,,,5.8049999999999997,0.026973485946655273,
,,,5.8075000000000001,0.022285580635070801,
,,,5.8099999999999996,0.01168370246887207,
,,,5.8125,0.0061062974855303764,
,,,5.8150000000000004,0.00060101354029029608,
,,,5.8174999999999999,-0.0044955811463296413,
,,,5.8200000000000003,-0.012332797050476074,
,,,5.8224999999999998,-0.014472405426204205,
,,,5.8250000000000002,-0.015121500007808208,
,,,5.8274999999999997,-0.014159878715872765,
,,,5.8300000000000001,-0.0075968108139932156,
,,,5.8324999999999996,-0.0023319325409829617,
,,,5.835,0.0038945674896240234,
,,,5.8375000000000004,0.010722081176936626,
,,,5.8399999999999999,0.024954080581665039,
,,,5.8425000000000002,0.031829677522182465,
,,,5.8449999999999998,0.038368701934814453,
,,,5.8475000000000001,0.044426918029785156,
,,,5.8499999999999996,0.055173039436340332,
,,,5.8525,0.059788823127746582,
,,,5.8550000000000004,0.063851676881313324,
,,,5.8574999999999999,0.067241393029689789,
,,,5.8600000000000003,0.071184039115905762,
,,,5.8624999999999998,0.071304246783256531,
,,,5.8650000000000002,0.069957971572875977,
,,,5.8674999999999997,0.067169271409511566,
,,,5.8700000000000001,0.058274269104003906,
,,,5.8724999999999996,0.053394041955471039,
,,,5.875,0.049499474465847015,
,,,5.8775000000000004,0.047696433961391449,
,,,5.8799999999999999,0.055317282676696777,
,,,5.8825000000000003,0.066664420068264008,
,,,5.8849999999999998,0.083709165453910828,
,,,5.8875000000000002,0.10623514652252197,
,,,5.8899999999999997,0.16354779899120331,
,,,5.8925000000000001,0.19453606009483337,
,,,5.8949999999999996,0.22357702255249023,
,,,5.8975,0.24742524325847626,
,,,5.9000000000000004,0.26579222083091736,
,,,5.9024999999999999,0.25348347425460815,
,,,5.9050000000000002,0.22290389239788055,
,,,5.9074999999999998,0.17184178531169891,
,,,5.9100000000000001,0.004519621841609478,
,,,5.9124999999999996,-0.11037012189626694,
,,,5.915,-0.24252097308635712,
,,,5.9175000000000004,-0.38719695806503296,
,,,5.9199999999999999,-0.68729501962661743,
,,,5.9225000000000003,-0.82634550333023071,
,,,5.9249999999999998,-0.94628375768661499,
,,,5.9275000000000002,-1.0386475324630737,
,,,5.9299999999999997,-1.114519476890564,
,,,5.9325000000000001,-1.0907193422317505,
,,,5.9349999999999996,-1.0258579254150391,
,,,5.9375,-0.92382991313934326,
,,,5.9400000000000004,-0.63789170980453491,
,,,5.9424999999999999,-0.47340631484985352,
,,,5.9450000000000003,-0.30872863531112671,
,,,5.9474999999999998,-0.15381138026714325,
,,,5.9500000000000002,0.095729433000087738,
,,,5.9524999999999997,0.18116950988769531,
,,,5.9550000000000001,0.23884277045726776,
,,,5.9574999999999996,0.2706964910030365,
,,,5.96,0.27365347743034363,
,,,5.9625000000000004,0.2553105354309082,
,,,5.9649999999999999,0.23081323504447937,
,,,5.9675000000000002,0.20460903644561768,
,,,5.9699999999999998,0.15893201529979706,
,,,5.9725000000000001,0.14241616427898407,
,,,5.9749999999999996,0.13027569651603699,
,,,5.9775,0.12183745950460434,
,,,5.9800000000000004,0.11174043267965317,
