Data Set 1:Time(s),Data Set 1:EKG(mV),Data Set 1:Heart Rate(bpm),Data Set 2:Time(s),Data Set 2:EKG(mV),Data Set 2:Heart Rate(bpm)
0,-0.1522727906703949,69.364158630371094,0,0.027935108169913292,87.751373291015625
0.0050000000000000001,-0.1713850200176239,,0.0025000000000000001,0.019112229347229004,
0.01,-0.18972794711589813,,0.0050000000000000001,0.0076208515092730522,
0.014999999999999999,-0.2301400899887085,,0.0074999999999999997,-0.0020194053649902344,
0.02,-0.20597934722900391,,0.01,-0.0090632839128375053,
0.025000000000000001,-0.12825629115104675,,0.012500000000000001,-0.013054013252258301,
0.029999999999999999,-0.067313514649868011,,0.014999999999999999,-0.0080054998397827148,
0.035000000000000003,-0.010433594696223736,,0.017500000000000002,-0.0027406215667724609,
0.040000000000000001,-0.018607378005981445,,0.02,0.0026925406418740749,
0.044999999999999998,-0.10315795987844467,,0.022499999999999999,0.010433594696223736,
0.050000000000000003,-0.18403033912181854,,0.025000000000000001,0.011611580848693848,
0.055,-0.28045696020126343,,0.0275,0.010794202797114849,
0.059999999999999998,-0.30115586519241333,,0.029999999999999999,0.0084141893312335014,
0.065000000000000002,-0.2635083794593811,,0.032500000000000001,0.001466472982428968,
0.070000000000000007,-0.21347999572753906,,0.035000000000000003,-0.0017549594631418586,
0.074999999999999997,-0.14518082141876221,,0.037499999999999999,-0.00430325698107481,
0.080000000000000002,-0.11803905665874481,,0.040000000000000001,-0.0062986216507852077,
0.085000000000000006,-0.10008077323436737,,0.042500000000000003,-0.011443297378718853,
0.089999999999999997,-0.092916689813137054,,0.044999999999999998,-0.01675625704228878,
0.095000000000000001,-0.080463692545890808,,0.047500000000000001,-0.025410851463675499,
0.10000000000000001,-0.075174771249294281,,0.050000000000000003,-0.038104258477687836,
0.105,-0.084189973771572113,,0.052499999999999998,-0.075511336326599121,
0.11,-0.10332624614238739,,0.055,-0.09830176830291748,
0.115,-0.14119009673595428,,0.057500000000000002,-0.1215008944272995,
0.12,-0.16330739855766296,,0.059999999999999998,-0.14311334490776062,
0.125,-0.18311679363250732,,0.0625,-0.17443816363811493,
0.13,-0.18874228000640869,,0.065000000000000002,-0.18232345581054688,
0.13500000000000001,-0.1931176632642746,,0.067500000000000004,-0.1851842850446701,
0.14000000000000001,-0.19617080688476562,,0.070000000000000007,-0.18427073955535889,
0.14499999999999999,-0.20117124915122986,,0.072499999999999995,-0.17883758246898651,
0.14999999999999999,-0.20424842834472656,,0.074999999999999997,-0.17814040184020996,
0.155,-0.20994603633880615,,0.077499999999999999,-0.18059253692626953,
0.16,-0.21593213081359863,,0.080000000000000002,-0.18641035258769989,
0.16500000000000001,-0.22727927565574646,,0.082500000000000004,-0.20427247881889343,
0.17000000000000001,-0.23273646831512451,,0.085000000000000006,-0.21244625747203827,
0.17499999999999999,-0.22915443778038025,,0.087499999999999994,-0.21701395511627197,
0.17999999999999999,-0.21593213081359863,,0.089999999999999997,-0.21600425243377686,
0.185,-0.18174648284912109,,0.092499999999999999,-0.19330999255180359,
0.19,-0.15335461497306824,,0.095000000000000001,-0.17239472270011902,
0.19500000000000001,-0.10878344625234604,,0.097500000000000003,-0.14732043445110321,
0.20000000000000001,-0.079237625002861023,,0.10000000000000001,-0.12077967822551727,
0.20499999999999999,-0.034522216767072678,,0.10249999999999999,-0.07454971969127655,
0.20999999999999999,-0.0038705270271748304,,0.105,-0.059692662209272385,
0.215,0.042503677308559418,,0.1075,-0.052240096032619476,
0.22,0.072025462985038757,,0.11,-0.052360296249389648,
0.22500000000000001,0.11121153831481934,,0.1125,-0.071592733263969421,
0.23000000000000001,0.13272783160209656,,0.115,-0.087339282035827637,
0.23499999999999999,0.15720109641551971,,0.11749999999999999,-0.10467251390218735,
0.23999999999999999,0.16825973987579346,,0.12,-0.12198170274496078,
0.245,0.17765960097312927,,0.1225,-0.15277764201164246,
0.25,0.18018385767936707,,0.125,-0.16590377688407898,
0.255,0.18153011798858643,,0.1275,-0.17809233069419861,
0.26000000000000001,0.18275618553161621,,0.13,-0.19013664126396179,
0.26500000000000001,0.18705944716930389,,0.13250000000000001,-0.20273387432098389,
0.27000000000000002,0.19126653671264648,,0.13500000000000001,-0.23122191429138184,
0.27500000000000002,0.19691607356071472,,0.13750000000000001,-0.24696847796440125,
0.28000000000000003,0.19828638434410095,,0.14000000000000001,-0.26302754878997803,
0.28499999999999998,0.19484858214855194,,0.14249999999999999,-0.29276570677757263,
0.28999999999999998,0.1891990602016449,,0.14499999999999999,-0.30481001734733582,
0.29499999999999998,0.17869333922863007,,0.14749999999999999,-0.31416177749633789,
0.29999999999999999,0.17261108756065369,,0.14999999999999999,-0.32060465216636658,
0.30499999999999999,0.16782701015472412,,0.1525,-0.32546085119247437,
0.31,0.16797125339508057,,0.155,-0.3246915340423584,
0.315,0.17184178531169891,,0.1575,-0.32250386476516724,
0.32000000000000001,0.1752074658870697,,0.16,-0.3192824125289917,
0.32500000000000001,0.17821252346038818,,0.16250000000000001,-0.31084418296813965,
0.33000000000000002,0.17722687125205994,,0.16500000000000001,-0.30553123354911804,
0.33500000000000002,0.16965410113334656,,0.16750000000000001,-0.29916048049926758,
0.34000000000000002,0.16051869094371796,,0.17000000000000001,-0.29129922389984131,
0.34499999999999997,0.1422959566116333,,0.17249999999999999,-0.26935023069381714,
0.34999999999999998,0.12912175059318542,,0.17499999999999999,-0.25458931922912598,
0.35499999999999998,0.11202891916036606,,0.17749999999999999,-0.23711185157299042,
0.35999999999999999,0.1046244353055954,,0.17999999999999999,-0.21706204116344452,
0.36499999999999999,0.10092218965291977,,0.1825,-0.17097632586956024,
0.37,0.10255694389343262,,0.185,-0.14638285338878632,
0.375,0.10755737870931625,,0.1875,-0.12200574576854706,
0.38,0.11022587865591049,,0.19,-0.098830662667751312,
0.38500000000000001,0.11075477302074432,,0.1925,-0.059788823127746582,
0.39000000000000001,0.10859112441539764,,0.19500000000000001,-0.045316420495510101,
0.39500000000000002,0.10270118713378906,,0.19750000000000001,-0.034738581627607346,
0.40000000000000002,0.097917124629020691,,0.20000000000000001,-0.028031270951032639,
0.40500000000000003,0.090753041207790375,,0.20250000000000001,-0.024809837341308594,
0.40999999999999998,0.086738273501396179,,0.20499999999999999,-0.026949446648359299,
0.41499999999999998,0.083348557353019714,,0.20749999999999999,-0.030507445335388184,
0.41999999999999998,0.083468757569789886,,0.20999999999999999,-0.034642420709133148,
0.42499999999999999,0.086690187454223633,,0.21249999999999999,-0.041710339486598969,
0.42999999999999999,0.089502930641174316,,0.215,-0.043681662529706955,
0.435,0.091690622270107269,,0.2175,-0.044282674789428711,
0.44,0.09056071937084198,,0.22,-0.043513379991054535,
0.44500000000000001,0.085175633430480957,,0.2225,-0.038777392357587814,
0.45000000000000001,0.080319449305534363,,0.22500000000000001,-0.035435758531093597,
0.45500000000000002,0.0738525390625,,0.22750000000000001,-0.031925838440656662,
0.46000000000000002,0.071232125163078308,,0.23000000000000001,-0.028512081131339073,
0.46500000000000002,0.070342622697353363,,0.23250000000000001,-0.022838514298200607,
0.46999999999999997,0.071160003542900085,,0.23499999999999999,-0.020722946152091026,
0.47499999999999998,0.072362028062343597,,0.23749999999999999,-0.018992027267813683,
0.47999999999999998,0.071953341364860535,,0.23999999999999999,-0.017525553703308105,
0.48499999999999999,0.06856362521648407,,0.24249999999999999,-0.014760891906917095,
0.48999999999999999,0.065197944641113281,,0.245,-0.013078054413199425,
0.495,0.061639945954084396,,0.2475,-0.01105864904820919,
0.5,0.062240958213806152,,0.25,-0.0086305541917681694,
0.505,0.068876147270202637,,0.2525,-0.0026204190216958523,
0.51000000000000001,0.076160430908203125,,0.255,0.00074525678064674139,
0.51500000000000001,0.088060498237609863,,0.25750000000000001,0.0041830539703369141,
0.52000000000000002,0.094984173774719238,,0.26000000000000001,0.0075006484985351562,
0.52500000000000002,0.10274927318096161,,0.26250000000000001,0.013174216262996197,
0.53000000000000003,0.10649959743022919,,0.26500000000000001,0.015241703018546104,
0.53500000000000003,0.11094709485769272,,0.26750000000000002,0.016708176583051682,
0.54000000000000004,0.11347135156393051,,0.27000000000000002,0.017549594864249229,
0.54500000000000004,0.11666874587535858,,0.27250000000000002,0.017549594864249229,
0.55000000000000004,0.11835157871246338,,0.27500000000000002,0.016828378662467003,
0.55500000000000005,0.120106540620327,,0.27750000000000002,0.015794634819030762,
0.56000000000000005,0.12061139196157455,,0.28000000000000003,0.014544527046382427,
0.56499999999999995,0.11981805413961411,,0.28249999999999997,0.011755824089050293,
0.56999999999999995,0.11794289201498032,,0.28499999999999998,0.010361473076045513,
0.57499999999999996,0.11282225698232651,,0.28749999999999998,0.0089911622926592827,
0.57999999999999996,0.10794202983379364,,0.28999999999999998,0.0077170133590698242,
0.58499999999999996,0.098686419427394867,,0.29249999999999998,0.0055052838288247585,
0.58999999999999997,0.091522336006164551,,0.29499999999999998,0.00461578369140625,
0.59499999999999997,0.08092045783996582,,0.29749999999999999,0.0039186081849038601,
0.59999999999999998,0.075487300753593445,,0.29999999999999999,0.0034858784638345242,
0.60499999999999998,0.072602435946464539,,0.30249999999999999,0.0034858784638345242,
0.60999999999999999,0.07488628476858139,,0.30499999999999999,0.0039426488801836967,
0.61499999999999999,0.083180271089076996,,0.3075,0.0046879053115844727,
0.62,0.089647173881530762,,0.31,0.0056735677644610405,
0.625,0.095897719264030457,,0.3125,0.0081497430801391602,
0.63,0.095464989542961121,,0.315,0.0094719734042882919,
0.63500000000000001,0.086377665400505066,,0.3175,0.010818243026733398,
0.64000000000000001,0.075535379350185394,,0.32000000000000001,0.012116432189941406,
0.64500000000000002,0.05642315000295639,,0.32250000000000001,0.01461664866656065,
0.65000000000000002,0.045556824654340744,,0.32500000000000001,0.015866756439208984,
0.65500000000000003,0.038897596299648285,,0.32750000000000001,0.017188986763358116,
0.66000000000000003,0.043393176048994064,,0.33000000000000002,0.018583338707685471,
0.66500000000000004,0.062697730958461761,,0.33250000000000002,0.021684568375349045,
0.67000000000000004,0.080054998397827148,,0.33500000000000002,0.023319324478507042,
0.67500000000000004,0.10306179523468018,,0.33750000000000002,0.02490600012242794,
0.68000000000000005,0.11116345971822739,,0.34000000000000002,0.026300352066755295,
0.68500000000000005,0.1085430383682251,,0.34250000000000003,0.027838945388793945,
0.68999999999999995,0.098734498023986816,,0.34499999999999997,0.027646621689200401,
0.69499999999999995,0.081737838685512543,,0.34749999999999998,0.026684999465942383,
0.69999999999999996,0.077146098017692566,,0.34999999999999998,0.02490600012242794,
0.70499999999999996,0.094623565673828125,,0.35249999999999998,0.019184350967407227,
0.70999999999999996,0.12734274566173553,,0.35499999999999998,0.015602311119437218,
0.71499999999999997,0.20280599594116211,,0.35749999999999998,0.011948148719966412,
0.71999999999999997,0.25639235973358154,,0.35999999999999999,0.0085343923419713974,
0.72499999999999998,0.29771804809570312,,0.36249999999999999,0.0035580000840127468,
0.72999999999999998,0.26822030544281006,,0.36499999999999999,0.0024521350860595703,
0.73499999999999999,0.098782584071159363,,0.36749999999999999,0.0024040541611611843,
0.73999999999999999,-0.098109446465969086,,0.37,0.0033897161483764648,
0.745,-0.46400648355484009,,0.3725,0.0052648782730102539,
0.75,-0.69414657354354858,,0.375,0.010866324417293072,
0.755,-0.9020732045173645,,0.3775,0.014111797325313091,
0.76000000000000001,-0.90240979194641113,,0.38,0.017333230003714561,
0.76500000000000001,-0.69219928979873657,,0.38250000000000001,0.022982757538557053,
0.77000000000000002,-0.45686644315719604,,0.38500000000000001,0.025194486603140831,
0.77500000000000002,-0.082435011863708496,,0.38750000000000001,0.026973485946655273,
0.78000000000000003,0.11642833799123764,,0.39000000000000001,0.028343796730041504,
0.78500000000000003,0.28228402137756348,,0.39250000000000002,0.030291080474853516,
0.79000000000000004,0.30959409475326538,,0.39500000000000002,0.031108459457755089,
0.79500000000000004,0.27490359544754028,,0.39750000000000002,0.03197392076253891,
0.80000000000000004,0.23348173499107361,,0.40000000000000002,0.032959580421447754,
0.80500000000000005,0.17854909598827362,,0.40250000000000002,0.03550788015127182,
0.81000000000000005,0.15256127715110779,,0.40500000000000003,0.037118595093488693,
0.81499999999999995,0.12592434883117676,,0.40749999999999997,0.038873553276062012,
0.81999999999999995,0.11339922994375229,,0.40999999999999998,0.040724676102399826,
0.82499999999999996,0.10087411105632782,,0.41249999999999998,0.044523082673549652,
0.82999999999999996,0.096715092658996582,,0.41499999999999998,0.046374201774597168,
0.83499999999999996,0.094743773341178894,,0.41749999999999998,0.048129163682460785,
0.83999999999999997,0.093758106231689453,,0.41999999999999998,0.049812000244855881,
0.84499999999999997,0.08878171443939209,,0.42249999999999999,0.053009390830993652,
0.84999999999999998,0.082579255104064941,,0.42499999999999999,0.054572027176618576,
0.85499999999999998,0.071424447000026703,,0.42749999999999999,0.0561346635222435,
0.85999999999999999,0.065077744424343109,,0.42999999999999999,0.057697296142578125,
0.86499999999999999,0.059933066368103027,,0.4325,0.060726404190063477,
0.87,0.059476297348737717,,0.435,0.062144797295331955,
0.875,0.060774486511945724,,0.4375,0.063418947160243988,
0.88,0.060894690454006195,,0.44,0.064524814486503601,
0.88500000000000001,0.056735675781965256,,0.4425,0.066015325486660004,
0.89000000000000001,0.050172608345746994,,0.44500000000000001,0.066351890563964844,
0.89500000000000002,0.035580001771450043,,0.44750000000000001,0.066424012184143066,
0.90000000000000002,0.024425189942121506,,0.45000000000000001,0.066207647323608398,
0.90500000000000003,0.0092075271531939507,,0.45250000000000001,0.065246030688285828,
0.91000000000000003,0.0014905135612934828,,0.45500000000000002,0.064596936106681824,
0.91500000000000004,-0.0065390272065997124,,0.45750000000000002,0.063995920121669769,
0.92000000000000004,-0.010986527428030968,,0.46000000000000002,0.063515111804008484,
0.92500000000000004,-0.020025771111249924,,0.46250000000000002,0.063154503703117371,
0.93000000000000005,-0.029353499412536621,,0.46500000000000002,0.063322782516479492,
0.93500000000000005,-0.049427352845668793,,0.46750000000000003,0.063731476664543152,
0.93999999999999995,-0.06639997661113739,,0.46999999999999997,0.064332485198974609,
0.94499999999999995,-0.095008216798305511,,0.47249999999999998,0.065750882029533386,
0.94999999999999996,-0.11457721889019012,,0.47499999999999998,0.066472098231315613,
0.95499999999999996,-0.14186322689056396,,0.47749999999999998,0.067097149789333344,
0.95999999999999996,-0.15720109641551971,,0.47999999999999998,0.067577958106994629,
0.96499999999999997,-0.17439007759094238,,0.48249999999999998,0.068203017115592957,
0.96999999999999997,-0.18184265494346619,,0.48499999999999999,0.068299174308776855,
0.97499999999999998,-0.18785278499126434,,0.48749999999999999,0.068299174308776855,
0.97999999999999998,-0.18927118182182312,,0.48999999999999999,0.068178974092006683,
0.98499999999999999,-0.18828551471233368,,0.49249999999999999,0.067553922533988953,
0.98999999999999999,-0.18525640666484833,,0.495,0.067000985145568848,
0.995,-0.1752074658870697,,0.4975,0.066303811967372894,
1,-0.16349971294403076,26.315790176391602,0.5,0.065438352525234222,
1.0049999999999999,-0.13724744319915771,,0.50249999999999995,0.063298746943473816,
1.01,-0.11431276798248291,,0.505,0.062072675675153732,
1.0149999999999999,-0.074116989970207214,,0.50749999999999995,0.060846608132123947,
1.02,-0.045484703034162521,,0.51000000000000001,0.059644579887390137,
1.0249999999999999,-0.0033416352234780788,,0.51249999999999996,0.05755305290222168,
1.03,0.022405784577131271,,0.51500000000000001,0.056735675781965256,
1.0349999999999999,0.055269204080104828,,0.51749999999999996,0.056086581200361252,
1.04,0.072746679186820984,,0.52000000000000002,0.055557690560817719,
1.0449999999999999,0.092315673828125,,0.52249999999999996,0.054644148796796799,
1.05,0.10149916261434555,,0.52500000000000002,0.054067175835371017,
1.0549999999999999,0.11092305183410645,,0.52749999999999997,0.053273838013410568,
1.0600000000000001,0.11513014882802963,,0.53000000000000003,0.052192013710737228,
1.0649999999999999,0.11940936744213104,,0.53249999999999997,0.048874419182538986,
1.0700000000000001,0.12118836492300034,,0.53500000000000003,0.046566527336835861,
1.075,0.12219806760549545,,0.53749999999999998,0.043873988091945648,
1.0800000000000001,0.1215970516204834,,0.54000000000000004,0.040868919342756271,
1.085,0.11861602962017059,,0.54249999999999998,0.034257769584655762,
1.0900000000000001,0.11556287854909897,,0.54500000000000004,0.03094017505645752,
1.095,0.11092305183410645,,0.54749999999999999,0.027790864929556847,
1.1000000000000001,0.10897576808929443,,0.55000000000000004,0.024954080581665039,
1.105,0.10875940322875977,,0.55249999999999999,0.020698904991149902,
1.1100000000000001,0.110129714012146,,0.55500000000000005,0.019448798149824142,
1.115,0.11289437860250473,,0.5575,0.018895864486694336,
1.1200000000000001,0.11452913284301758,,0.56000000000000005,0.018992027267813683,
1.125,0.11666874587535858,,0.5625,0.021011432632803917,
1.1299999999999999,0.11854390799999237,,0.56499999999999995,0.022694271057844162,
1.135,0.12253463268280029,,0.5675,0.024569433182477951,
1.1399999999999999,0.12515506148338318,,0.56999999999999995,0.02644459530711174,
1.145,0.12611667811870575,,0.57250000000000001,0.0292332973331213,
1.1499999999999999,0.12320777028799057,,0.57499999999999996,0.029666027054190636,
1.155,0.11368771642446518,,0.57750000000000001,0.0292332973331213,
1.1599999999999999,0.10582645982503891,,0.57999999999999996,0.027718743309378624,
1.165,0.096378527581691742,,0.58250000000000002,0.02137204073369503,
1.1699999999999999,0.093565784394741058,,0.58499999999999996,0.016563933342695236,
1.175,0.09443124383687973,,0.58750000000000002,0.010890364646911621,
1.1799999999999999,0.096426606178283691,,0.58999999999999997,0.004567702766507864,
1.1850000000000001,0.09734015166759491,,0.59250000000000003,-0.0084863109514117241,
1.1899999999999999,0.092988811433315277,,0.59499999999999997,-0.014400283806025982,
1.1950000000000001,0.087892219424247742,,0.59750000000000003,-0.019328594207763672,
1.2,0.082843706011772156,,0.59999999999999998,-0.022886594757437706,
1.2050000000000001,0.079261660575866699,,0.60250000000000004,-0.024857919663190842,
1.21,0.081088744103908539,,0.60499999999999998,-0.023054879158735275,
1.2150000000000001,0.089262530207633972,,0.60750000000000004,-0.019496878609061241,
1.22,0.095633268356323242,,0.60999999999999999,-0.014376243576407433,
1.2250000000000001,0.10056158155202866,,0.61250000000000004,-0.00091354054166004062,
1.23,0.095368824899196625,,0.61499999999999999,0.0066832704469561577,
1.2350000000000001,0.086810395121574402,,0.61750000000000005,0.01430412195622921,
1.24,0.071833133697509766,,0.62,0.02170860767364502,
1.2450000000000001,0.064356528222560883,,0.62250000000000005,0.035027068108320236,
1.25,0.061014890670776367,,0.625,0.040820837020874023,
1.2549999999999999,0.06394784152507782,,0.62749999999999995,0.046013593673706055,
1.26,0.06923675537109375,,0.63,0.050725542008876801,
1.2649999999999999,0.07709801197052002,,0.63249999999999995,0.058803163468837738,
1.27,0.07995884120464325,,0.63500000000000001,0.062192879617214203,
1.2749999999999999,0.07808367908000946,,0.63749999999999996,0.065005622804164886,
1.28,0.073708295822143555,,0.64000000000000001,0.06707310676574707,
1.2849999999999999,0.065390273928642273,,0.64249999999999996,0.068178974092006683,
1.29,0.060077309608459473,,0.64500000000000002,0.066880784928798676,
1.2949999999999999,0.060341756790876389,,0.64749999999999996,0.064308449625968933,
1.3,0.066351890563964844,,0.65000000000000002,0.060702364891767502,
1.3049999999999999,0.071857176721096039,,0.65249999999999997,0.052648782730102539,
1.3100000000000001,0.07671336829662323,,0.65500000000000003,0.049932204186916351,
1.3149999999999999,0.075319014489650726,,0.65749999999999997,0.04952351376414299,
1.3200000000000001,0.066303811967372894,,0.66000000000000003,0.052576661109924316,
1.325,0.058057904243469238,,0.66249999999999998,0.072866879403591156,
1.3300000000000001,0.047720473259687424,,0.66500000000000004,0.091137692332267761,
1.335,0.044354796409606934,,0.66749999999999998,0.11464934051036835,
1.3400000000000001,0.04490773007273674,,0.67000000000000004,0.14244019985198975,
1.345,0.047720473259687424,,0.67249999999999999,0.20379166305065155,
1.3500000000000001,0.05293726921081543,,0.67500000000000004,0.2322797030210495,
1.355,0.056278906762599945,,0.67749999999999999,0.25511822104454041,
1.3600000000000001,0.06103893369436264,,0.68000000000000005,0.26879727840423584,
1.365,0.064116120338439941,,0.6825,0.25478166341781616,
1.3700000000000001,0.067698165774345398,,0.68500000000000005,0.22093257308006287,
1.375,0.068347260355949402,,0.6875,0.16614417731761932,
1.3799999999999999,0.065173909068107605,,0.68999999999999995,0.089454852044582367,
1.385,0.060245595872402191,,0.6925,-0.12678980827331543,
1.3899999999999999,0.050845742225646973,,0.69499999999999995,-0.26076775789260864,
1.395,0.045340459793806076,,0.69750000000000001,-0.40544372797012329,
1.3999999999999999,0.041349731385707855,,0.69999999999999996,-0.55387002229690552,
1.405,0.041950743645429611,,0.70250000000000001,-0.82901400327682495,
1.4099999999999999,0.045845311135053635,,0.70499999999999996,-0.93818211555480957,
1.415,0.048465728759765625,,0.70750000000000002,-1.0175880193710327,
1.4199999999999999,0.049499474465847015,,0.70999999999999996,-1.0609571933746338,
1.425,0.047672390937805176,,0.71250000000000002,-1.0265791416168213,
1.4299999999999999,0.042503677308559418,,0.71499999999999997,-0.9497215747833252,
1.4350000000000001,0.039065878838300705,,0.71750000000000003,-0.83877444267272949,
1.4399999999999999,0.03658970445394516,,0.71999999999999997,-0.70128661394119263,
1.4450000000000001,0.037334959954023361,,0.72250000000000003,-0.3854900598526001,
1.45,0.040652554482221603,,0.72499999999999998,-0.22790431976318359,
1.4550000000000001,0.042407512664794922,,0.72750000000000004,-0.083204314112663269,
1.46,0.040388107299804688,,0.72999999999999998,0.041301649063825607,
1.4650000000000001,0.034281812608242035,,0.73250000000000004,0.21292707324028015,
1.47,0.017982324585318565,,0.73499999999999999,0.25836369395256042,
1.4750000000000001,0.0042311353608965874,,0.73750000000000004,0.27968764305114746,
1.48,-0.015193621627986431,,0.73999999999999999,0.28120219707489014,
1.4850000000000001,-0.02399246022105217,,0.74250000000000005,0.24576644599437714,
1.49,-0.027261972427368164,,0.745,0.21910548210144043,
1.4950000000000001,-0.022622149437665939,,0.74750000000000005,0.19210796058177948,
1.5,-0.0081737842410802841,,0.75,0.16758660972118378,
1.5049999999999999,0.0039426488801836967,,0.75249999999999995,0.13135752081871033,
1.51,0.022069215774536133,,0.755,0.11984209716320038,
1.5149999999999999,0.032719176262617111,,0.75749999999999995,0.11178851127624512,
1.52,0.044595204293727875,,0.76000000000000001,0.10609090328216553,
1.5249999999999999,0.048465728759765625,,0.76249999999999996,0.097772881388664246,
1.53,0.046758852899074554,,0.76500000000000001,0.093758106231689453,
1.5349999999999999,0.042167108505964279,,0.76749999999999996,0.089430809020996094,
1.54,0.039955377578735352,,0.77000000000000002,0.084815025329589844,
1.5449999999999999,0.050677459686994553,,0.77249999999999996,0.075391136109828949,
1.55,0.097845003008842468,,0.77500000000000002,0.071111917495727539,
1.5549999999999999,0.14905135333538055,,0.77749999999999997,0.067337557673454285,
1.5600000000000001,0.22913038730621338,,0.78000000000000003,0.064140163362026215,
1.5649999999999999,0.25543075799942017,,0.78249999999999997,0.059332054108381271,
1.5700000000000001,0.19633910059928894,,0.78500000000000003,0.057480931282043457,
1.575,0.068227052688598633,,0.78749999999999998,0.055750012397766113,
1.5800000000000001,-0.24949273467063904,,0.79000000000000004,0.054043136537075043,
1.585,-0.50600528717041016,,0.79249999999999998,0.050461094826459885,
1.5900000000000001,-0.84593856334686279,,0.79500000000000004,0.048561893403530121,
1.595,-0.9737861156463623,,0.79749999999999999,0.046638648957014084,
1.6000000000000001,-0.9454423189163208,,0.80000000000000004,0.04478752613067627,
1.605,-0.78451496362686157,,0.80249999999999999,0.041469931602478027,
1.6100000000000001,-0.41633409261703491,,0.80500000000000005,0.040051542222499847,
1.615,-0.16030232608318329,,0.8075,0.03875335305929184,
1.6200000000000001,0.13005933165550232,,0.81000000000000005,0.037503242492675781,
1.625,0.23064494132995605,,0.8125,0.034882824867963791,
1.6299999999999999,0.25516629219055176,,0.81499999999999995,0.03334423154592514,
1.635,0.21941801905632019,,0.8175,0.031589269638061523,
1.6399999999999999,0.14693579077720642,,0.81999999999999995,0.029617946594953537,
1.645,0.10832667350769043,,0.82250000000000001,0.025026202201843262,
1.6499999999999999,0.075559422373771667,,0.82499999999999996,0.022550027817487717,
1.655,0.0661114901304245,,0.82750000000000001,0.0200017299503088,
1.6599999999999999,0.058947406709194183,,0.82999999999999996,0.017453432083129883,
1.665,0.054355662316083908,,0.83250000000000002,0.012645324692130089,
1.6699999999999999,0.045532785356044769,,0.83499999999999996,0.010457634925842285,
1.675,0.039017796516418457,,0.83750000000000002,0.0084382295608520508,
1.6799999999999999,0.030074715614318848,,0.83999999999999997,0.0065630674362182617,
1.6850000000000001,0.025386810302734375,,0.84250000000000003,0.0030291080474853516,
1.6899999999999999,0.020795067772269249,,0.84499999999999997,0.0012260675430297852,
1.6950000000000001,0.019280513748526573,,0.84750000000000003,-0.00069717568112537265,
1.7,0.018559297546744347,,0.84999999999999998,-0.0028848648071289062,
1.7050000000000001,0.018102526664733887,,0.85250000000000004,-0.0082699460908770561,
1.71,0.015409986488521099,,0.85499999999999998,-0.011587540619075298,
1.7150000000000001,0.01139521598815918,,0.85750000000000004,-0.015337864868342876,
1.72,0.002067486522719264,,0.85999999999999999,-0.019472837448120117,
1.7250000000000001,-0.0052408380433917046,,0.86250000000000004,-0.028752487152814865,
1.73,-0.014881094917654991,,0.86499999999999999,-0.033752918243408203,
1.7350000000000001,-0.019184350967407227,,0.86750000000000005,-0.038873553276062012,
1.74,-0.022718310356140137,,0.87,-0.044090352952480316,
1.7450000000000001,-0.024833878502249718,,0.87250000000000005,-0.054692231118679047,
1.75,-0.031637351959943771,,0.875,-0.060077309608459473,
1.7549999999999999,-0.04017174243927002,,0.87749999999999995,-0.065558552742004395,
1.76,-0.058899324387311935,,0.88,-0.071184039115905762,
1.7649999999999999,-0.073684260249137878,,0.88249999999999995,-0.083252392709255219,
1.77,-0.09556114673614502,,0.88500000000000001,-0.08981546014547348,
1.7749999999999999,-0.10849495977163315,,0.88749999999999996,-0.096787214279174805,
1.78,-0.12551566958427429,,0.89000000000000001,-0.10421574115753174,
1.7849999999999999,-0.13681471347808838,,0.89249999999999996,-0.12027482688426971,
1.79,-0.15655200183391571,,0.89500000000000002,-0.12876114249229431,
1.7949999999999999,-0.17208218574523926,,0.89749999999999996,-0.13734361529350281,
1.8,-0.19665162265300751,,0.90000000000000002,-0.14595012366771698,
1.8049999999999999,-0.21134039759635925,,0.90249999999999997,-0.16246597468852997,
1.8100000000000001,-0.22684654593467712,,0.90500000000000003,-0.17013490200042725,
1.8149999999999999,-0.23208737373352051,,0.90749999999999997,-0.17727494239807129,
1.8200000000000001,-0.23381829261779785,,0.91000000000000003,-0.18386206030845642,
1.825,-0.23239991068840027,,0.91249999999999998,-0.19532939791679382,
1.8300000000000001,-0.22742351889610291,,0.91500000000000004,-0.20023366808891296,
1.835,-0.22098064422607422,,0.91749999999999998,-0.20470520853996277,
1.8400000000000001,-0.20249347388744354,,0.92000000000000004,-0.20874401926994324,
1.845,-0.1822032630443573,,0.92249999999999999,-0.21573981642723083,
1.8500000000000001,-0.14001211524009705,,0.92500000000000004,-0.21874487400054932,
1.855,-0.10693232715129852,,0.92749999999999999,-0.22138933837413788,
1.8600000000000001,-0.057865582406520844,,0.93000000000000005,-0.2236010730266571,
1.865,-0.02985835075378418,,0.9325,-0.22626957297325134,
1.8700000000000001,0.0016587972640991211,,0.93500000000000005,-0.22641381621360779,
1.875,0.016660094261169434,,0.9375,-0.22547623515129089,
1.8799999999999999,0.034714542329311371,,0.93999999999999995,-0.22328853607177734,
1.885,0.045917432755231857,,0.9425,-0.21453778445720673,
1.8899999999999999,0.06183227151632309,,0.94499999999999995,-0.20780643820762634,
1.895,0.070390701293945312,,0.94750000000000001,-0.19948840141296387,
1.8999999999999999,0.077626906335353851,,0.94999999999999996,-0.18967986106872559,
1.905,0.078756809234619141,,0.95250000000000001,-0.166168212890625,
1.9099999999999999,0.077891349792480469,,0.95499999999999996,-0.15294592082500458,
1.915,0.077963471412658691,,0.95750000000000002,-0.13907453417778015,
1.9199999999999999,0.081112787127494812,,0.95999999999999996,-0.12479444593191147,
1.925,0.084766946732997894,,0.96250000000000002,-0.095993876457214355,
1.9299999999999999,0.089983746409416199,,0.96499999999999997,-0.081858038902282715,
1.9350000000000001,0.092027187347412109,,0.96750000000000003,-0.068106852471828461,
1.9399999999999999,0.09272436797618866,,0.96999999999999997,-0.054860513657331467,
1.9450000000000001,0.092508003115653992,,0.97250000000000003,-0.030026635155081749,
1.95,0.092652246356010437,,0.97499999999999998,-0.018487175926566124,
1.9550000000000001,0.094335079193115234,,0.97750000000000004,-0.0075006484985351562,
1.96,0.096907421946525574,,0.97999999999999998,0.0028848648071289062,
1.9650000000000001,0.097820959985256195,,0.98250000000000004,0.022021135315299034,
1.97,0.096186205744743347,,0.98499999999999999,0.030723810195922852,
1.9750000000000001,0.092772446572780609,,0.98750000000000004,0.038849513977766037,
1.98,0.087964341044425964,,0.98999999999999999,0.046350162476301193,
1.9850000000000001,0.080006919801235199,,0.99250000000000005,0.059524379670619965,
1.99,0.074333354830741882,,0.995,0.065197944641113281,
1.9950000000000001,0.073107287287712097,,0.99750000000000005,0.070294544100761414,
2,0.075078606605529785,26.315790176391602,1,0.07488628476858139,88.050315856933594
2.0049999999999999,0.077771149575710297,,1.0024999999999999,0.08274754136800766,
2.0099999999999998,0.080656014382839203,,1.0049999999999999,0.086113214492797852,
2.0150000000000001,0.08029540628194809,,1.0075000000000001,0.089166365563869476,
2.02,0.075992152094841003,,1.01,0.091882944107055664,
2.0249999999999999,0.072001419961452484,,1.0125,0.096426606178283691,
2.0299999999999998,0.06781836599111557,,1.0149999999999999,0.098181568086147308,
2.0350000000000001,0.067746244370937347,,1.0175000000000001,0.099624000489711761,
2.04,0.07168889045715332,,1.02,0.10072986781597137,
2.0449999999999999,0.075535379350185394,,1.0225,0.10200401395559311,
2.0499999999999998,0.079574190080165863,,1.0249999999999999,0.10224442183971405,
2.0550000000000002,0.079766511917114258,,1.0275000000000001,0.102292500436306,
2.0600000000000001,0.076232552528381348,,1.03,0.1021963357925415,
2.0649999999999999,0.072578392922878265,,1.0325,0.10185977071523666,
2.0699999999999998,0.068419381976127625,,1.0349999999999999,0.10171552747488022,
2.0750000000000002,0.068058773875236511,,1.0375000000000001,0.101643405854702,
2.0800000000000001,0.071616768836975098,,1.04,0.10166744887828827,
2.085,0.075294971466064453,,1.0425,0.10188381373882294,
2.0899999999999999,0.078804895281791687,,1.0449999999999999,0.10202805697917938,
2.0950000000000002,0.077843271195888519,,1.0475000000000001,0.10214825719594955,
2.1000000000000001,0.071087881922721863,,1.05,0.10217230021953583,
2.105,0.064861379563808441,,1.0525,0.10195593535900116,
2.1099999999999999,0.059596501290798187,,1.0549999999999999,0.10173957049846649,
2.1150000000000002,0.056879919022321701,,1.0575000000000001,0.1014510840177536,
2.1200000000000001,0.061135094612836838,,1.0600000000000001,0.10121067613363266,
2.125,0.065919160842895508,,1.0625,0.10099431127309799,
2.1299999999999999,0.071592733263969421,,1.0649999999999999,0.10106643289327621,
2.1349999999999998,0.072698593139648438,,1.0674999999999999,0.10128279775381088,
2.1400000000000001,0.070414744317531586,,1.0700000000000001,0.10159532725811005,
2.145,0.067626044154167175,,1.0725,0.10226845741271973,
2.1499999999999999,0.06428440660238266,,1.075,0.10253290832042694,
2.1549999999999998,0.06353914737701416,,1.0774999999999999,0.10262906551361084,
2.1600000000000001,0.064380571246147156,,1.0800000000000001,0.10258098691701889,
2.165,0.065462395548820496,,1.0825,0.10181169211864471,
2.1699999999999999,0.066424012184143066,,1.085,0.10113855451345444,
2.1749999999999998,0.066327854990959167,,1.0874999999999999,0.10027309507131577,
2.1800000000000002,0.065534517168998718,,1.0900000000000001,0.099263392388820648,
2.1850000000000001,0.065101787447929382,,1.0925,0.096979543566703796,
2.1899999999999999,0.065270066261291504,,1.095,0.095825597643852234,
2.1949999999999998,0.065823003649711609,,1.0974999999999999,0.094719730317592621,
2.2000000000000002,0.066039368510246277,,1.1000000000000001,0.093710027635097504,
2.2050000000000001,0.064669057726860046,,1.1025,0.092123351991176605,
2.21,0.058995485305786133,,1.105,0.091546379029750824,
2.2149999999999999,0.053081512451171875,,1.1074999999999999,0.091113649308681488,
2.2200000000000002,0.04353741928935051,,1.1100000000000001,0.090704962611198425,
2.2250000000000001,0.038705270737409592,,1.1125,0.089839503169059753,
2.23,0.036229096353054047,,1.115,0.08919040858745575,
2.2349999999999999,0.037887893617153168,,1.1174999999999999,0.088276863098144531,
2.2400000000000002,0.043297015130519867,,1.1200000000000001,0.087098881602287292,
2.2450000000000001,0.047023296356201172,,1.1225000000000001,0.08378128707408905,
2.25,0.050148569047451019,,1.125,0.081785917282104492,
2.2549999999999999,0.049932204186916351,,1.1274999999999999,0.079646311700344086,
2.2599999999999998,0.046254001557826996,,1.1299999999999999,0.077554784715175629,
2.2650000000000001,0.041926704347133636,,1.1325000000000001,0.074092946946620941,
2.27,0.033320188522338867,,1.135,0.072987079620361328,
2.2749999999999999,0.02661287784576416,,1.1375,0.072458192706108093,
2.2799999999999998,0.016323527321219444,,1.1399999999999999,0.072506271302700043,
2.2850000000000001,0.010265311226248741,,1.1425000000000001,0.074092946946620941,
2.29,0.0043272972106933594,,1.145,0.075391136109828949,
2.2949999999999999,0.0036782026290893555,,1.1475,0.076761446893215179,
2.2999999999999998,0.0088469190523028374,,1.1499999999999999,0.078011557459831238,
2.3050000000000002,0.016155242919921875,,1.1525000000000001,0.079526111483573914,
2.3100000000000001,0.030747851356863976,,1.155,0.079622268676757812,
2.3149999999999999,0.040748715400695801,,1.1575,0.079237625002861023,
2.3199999999999998,0.051927566528320312,,1.1599999999999999,0.078444287180900574,
2.3250000000000002,0.054788392037153244,,1.1625000000000001,0.076088309288024902,
2.3300000000000001,0.051422715187072754,,1.165,0.074814163148403168,
2.335,0.046302080154418945,,1.1675,0.073588095605373383,
2.3399999999999999,0.043777823448181152,,1.1699999999999999,0.072554349899291992,
2.3450000000000002,0.053321920335292816,,1.1725000000000001,0.071280203759670258,
2.3500000000000001,0.09584963321685791,,1.175,0.07106383889913559,
2.355,0.1432335376739502,,1.1775,0.071087881922721863,
2.3599999999999999,0.22326450049877167,,1.1799999999999999,0.07135232537984848,
2.3650000000000002,0.25812327861785889,,1.1825000000000001,0.072265863418579102,
2.3700000000000001,0.22881786525249481,,1.1850000000000001,0.07277071475982666,
2.375,0.12931406497955322,,1.1875,0.073227487504482269,
2.3799999999999999,-0.14554142951965332,,1.1899999999999999,0.073540017008781433,
2.3849999999999998,-0.38335046172142029,,1.1924999999999999,0.073636174201965332,
2.3900000000000001,-0.72282695770263672,,1.1950000000000001,0.073347687721252441,
2.395,-0.86997908353805542,,1.1975,0.072914958000183105,
2.3999999999999999,-0.88966828584671021,,1.2,0.072313949465751648,
2.4049999999999998,-0.76268613338470459,,1.2024999999999999,0.070919595658779144,
2.4100000000000001,-0.43054205179214478,,1.2050000000000001,0.070246458053588867,
2.415,-0.18321296572685242,,1.2075,0.069669485092163086,
2.4199999999999999,0.11481761932373047,,1.21,0.069212719798088074,
2.4249999999999998,0.22814473509788513,,1.2124999999999999,0.068828068673610687,
2.4300000000000002,0.27141770720481873,,1.2150000000000001,0.068876147270202637,
2.4350000000000001,0.243650883436203,,1.2175,0.069068476557731628,
2.4399999999999999,0.17518341541290283,,1.22,0.069356963038444519,
2.4449999999999998,0.1353963315486908,,1.2224999999999999,0.070102214813232422,
2.4500000000000002,0.098181568086147308,,1.2250000000000001,0.070414744317531586,
2.4550000000000001,0.085175633430480957,,1.2275,0.07060706615447998,
2.46,0.073203444480895996,,1.23,0.070631109178066254,
2.4649999999999999,0.066664420068264008,,1.2324999999999999,0.070030093193054199,
2.4700000000000002,0.058154068887233734,,1.2350000000000001,0.069429084658622742,
2.4750000000000001,0.054067175835371017,,1.2375,0.068635746836662292,
2.48,0.050220690667629242,,1.24,0.067722201347351074,
2.4849999999999999,0.048225324600934982,,1.2424999999999999,0.065919160842895508,
2.4900000000000002,0.04478752613067627,,1.2450000000000001,0.065149866044521332,
2.4950000000000001,0.042383473366498947,,1.2475000000000001,0.064548850059509277,
2.5,0.039835177361965179,,1.25,0.064164206385612488,
2.5049999999999999,0.038945674896240234,,1.2524999999999999,0.064019963145256042,
2.5099999999999998,0.036613743752241135,,1.2549999999999999,0.064188241958618164,
2.5150000000000001,0.032118164002895355,,1.2575000000000001,0.064500771462917328,
2.52,0.018150608986616135,,1.26,0.064909458160400391,
2.5249999999999999,0.0044234595261514187,,1.2625,0.065726839005947113,
2.5299999999999998,-0.017958283424377441,,1.2649999999999999,0.0661114901304245,
2.5350000000000001,-0.030291080474853516,,1.2675000000000001,0.066424012184143066,
2.54,-0.040388107299804688,,1.27,0.066640377044677734,
2.5449999999999999,-0.04154205322265625,,1.2725,0.066832706332206726,
2.5499999999999998,-0.039306282997131348,,1.2749999999999999,0.066760584712028503,
2.5550000000000002,-0.038825474679470062,,1.2775000000000001,0.066592298448085785,
2.5600000000000001,-0.04473944753408432,,1.28,0.066303811967372894,
2.5649999999999999,-0.054379701614379883,,1.2825,0.06531815230846405,
2.5699999999999998,-0.076328717172145844,,1.2849999999999999,0.064645014703273773,
2.5750000000000002,-0.094070635735988617,,1.2875000000000001,0.063851676881313324,
2.5800000000000001,-0.1215970516204834,,1.29,0.062986217439174652,
2.585,-0.13873796164989471,,1.2925,0.061231255531311035,
2.5899999999999999,-0.16114374995231628,,1.2949999999999999,0.060461960732936859,
2.5950000000000002,-0.17388522624969482,,1.2975000000000001,0.059860944747924805,
2.6000000000000001,-0.1906895637512207,,1.3,0.059452258050441742,
2.605,-0.20100295543670654,,1.3025,0.059308014810085297,
2.6099999999999999,-0.21521091461181641,,1.3049999999999999,0.059500336647033691,
2.6150000000000002,-0.2231442928314209,,1.3075000000000001,0.059812866151332855,
2.6200000000000001,-0.23093342781066895,,1.3100000000000001,0.060173474252223969,
2.625,-0.23256818950176239,,1.3125,0.06075044721364975,
2.6299999999999999,-0.22876977920532227,,1.3149999999999999,0.060894690454006195,
2.6349999999999998,-0.22165378928184509,,1.3174999999999999,0.060894690454006195,
2.6400000000000001,-0.2029983252286911,,1.3200000000000001,0.060798525810241699,
2.645,-0.18458327651023865,,1.3225,0.060341756790876389,
2.6499999999999999,-0.14789740741252899,,1.325,0.06000518798828125,
2.6549999999999998,-0.11866410821676254,,1.3274999999999999,0.059644579887390137,
2.6600000000000001,-0.072217784821987152,,1.3300000000000001,0.059259932488203049,
2.665,-0.042888324707746506,,1.3325,0.058442555367946625,
2.6699999999999999,-0.0057937703095376492,,1.335,0.058033864945173264,
2.6749999999999998,0.013342499732971191,,1.3374999999999999,0.057649217545986176,
2.6800000000000002,0.035195350646972656,,1.3400000000000001,0.057336688041687012,
2.6850000000000001,0.047095417976379395,,1.3425,0.056879919022321701,
2.6899999999999999,0.063971877098083496,,1.345,0.056735675781965256,
2.6949999999999998,0.075319014489650726,,1.3474999999999999,0.056639514863491058,
2.7000000000000002,0.091281935572624207,,1.3500000000000001,0.056543350219726562,
2.7050000000000001,0.099527835845947266,,1.3525,0.056230824440717697,
2.71,0.10561009496450424,,1.355,0.055966377258300781,
2.7149999999999999,0.10491292178630829,,1.3574999999999999,0.055629812180995941,
2.7200000000000002,0.09871046245098114,,1.3600000000000001,0.05522112175822258,
2.7250000000000001,0.093517705798149109,,1.3625,0.054331623017787933,
2.73,0.088661514222621918,,1.365,0.053898893296718597,
2.7349999999999999,0.089118286967277527,,1.3674999999999999,0.053586363792419434,
2.7400000000000002,0.095489025115966797,,1.3700000000000001,0.053369998931884766,
2.7450000000000001,0.10190784931182861,,1.3725000000000001,0.053369998931884766,
2.75,0.11061052978038788,,1.375,0.053610406816005707,
2.7549999999999999,0.11368771642446518,,1.3774999999999999,0.05401909351348877,
2.7599999999999998,0.11272609233856201,,1.3799999999999999,0.054572027176618576,
2.7650000000000001,0.10880748927593231,,1.3825000000000001,0.055942337960004807,
2.77,0.10008077323436737,,1.385,0.056663554161787033,
2.7749999999999999,0.093613862991333008,,1.3875,0.057288609445095062,
2.7799999999999998,0.08416593074798584,,1.3899999999999999,0.057769417762756348,
2.7850000000000001,0.078300043940544128,,1.3925000000000001,0.057937704026699066,
2.79,0.070679187774658203,,1.395,0.057480931282043457,
2.7949999999999999,0.066808663308620453,,1.3975,0.05659143254160881,
2.7999999999999998,0.063322782516479492,,1.3999999999999999,0.055269204080104828,
2.8050000000000002,0.062433283776044846,,1.4025000000000001,0.051374636590480804,
2.8100000000000001,0.062409244477748871,,1.405,0.048970580101013184,
2.8149999999999999,0.062962174415588379,,1.4075,0.046398244798183441,
2.8199999999999998,0.064693093299865723,,1.4099999999999999,0.043777823448181152,
2.8250000000000002,0.066664420068264008,,1.4125000000000001,0.039017796516418457,
2.8300000000000001,0.070366665720939636,,1.415,0.037166677415370941,
2.835,0.072289906442165375,,1.4175,0.03584444522857666,
2.8399999999999999,0.07243414968252182,,1.4199999999999999,0.035075150430202484,
2.8450000000000002,0.070222422480583191,,1.4225000000000001,0.035291515290737152,
2.8500000000000001,0.064717136323451996,,1.425,0.036132931709289551,
2.855,0.061111055314540863,,1.4275,0.037310920655727386,
2.8599999999999999,0.057793460786342621,,1.4299999999999999,0.038657188415527344,
2.8650000000000002,0.057192444801330566,,1.4325000000000001,0.041085284203290939,
2.8700000000000001,0.057961743324995041,,1.4350000000000001,0.041782461106777191,
2.875,0.059187810868024826,,1.4375,0.041926704347133636,
2.8799999999999999,0.062144797295331955,,1.4399999999999999,0.041349731385707855,
2.8849999999999998,0.065005622804164886,,1.4424999999999999,0.037695568054914474,
2.8900000000000001,0.069813728332519531,,1.4450000000000001,0.034522216767072678,
2.895,0.072169706225395203,,1.4475,0.030435323715209961,
2.8999999999999999,0.072217784821987152,,1.45,0.025555094704031944,
2.9049999999999998,0.069501206278800964,,1.4524999999999999,0.013943513855338097,
2.9100000000000001,0.06320258229970932,,1.4550000000000001,0.0077170133590698242,
2.915,0.059572458267211914,,1.4575,0.0016107162227854133,
2.9199999999999999,0.057745378464460373,,1.46,-0.0039907298050820827,
2.9249999999999998,0.058851242065429688,,1.4624999999999999,-0.012428959831595421,
2.9300000000000002,0.06120721623301506,,1.4650000000000001,-0.014664730057120323,
2.9350000000000001,0.06137549877166748,,1.4675,-0.015313824638724327,
2.9399999999999999,0.058274269104003906,,1.47,-0.014280080795288086,
2.9449999999999998,0.054764352738857269,,1.4724999999999999,-0.0074766082689166069,
2.9500000000000002,0.050052404403686523,,1.4750000000000001,-0.002043446060270071,
2.9550000000000001,0.04832148551940918,,1.4775,0.0043753786012530327,
2.96,0.047672390937805176,,1.48,0.011443297378718853,
2.9649999999999999,0.047936838120222092,,1.4824999999999999,0.026300352066755295,
2.9700000000000002,0.049427352845668793,,1.4850000000000001,0.033536553382873535,
2.9750000000000001,0.05214393138885498,,1.4875,0.040340028703212738,
2.98,0.060606203973293304,,1.49,0.046614609658718109,
2.9849999999999999,0.068755947053432465,,1.4924999999999999,0.057336688041687012,
2.9900000000000002,0.080607935786247253,,1.4950000000000001,0.061736106872558594,
2.9950000000000001,0.084790989756584167,,1.4975000000000001,0.065414309501647949,
3,0.081136822700500488,76.109939575195312,1.5,0.068323217332363129,
,,,1.5024999999999999,0.071256160736083984,
,,,1.5049999999999999,0.070967674255371094,
,,,1.5075000000000001,0.069405041635036469,
,,,1.51,0.066568255424499512,
,,,1.5125,0.058370433747768402,
,,,1.5149999999999999,0.054235458374023438,
,,,1.5175000000000001,0.051254432648420334,
,,,1.52,0.050509177148342133,
,,,1.5225,0.060173474252223969,
,,,1.5249999999999999,0.072337985038757324,
,,,1.5275000000000001,0.089935660362243652,
,,,1.53,0.11277417838573456,
,,,1.5325,0.17001470923423767,
,,,1.5349999999999999,0.20073851943016052,
,,,1.5375000000000001,0.22944292426109314,
,,,1.54,0.2529786229133606,
,,,1.5425,0.27084073424339294,
,,,1.5449999999999999,0.25833964347839355,
,,,1.5475000000000001,0.2276158332824707,
,,,1.55,0.17648160457611084,
,,,1.5525,0.0096883382648229599,
,,,1.5549999999999999,-0.10419170558452606,
,,,1.5575000000000001,-0.23453950881958008,
,,,1.5600000000000001,-0.37630659341812134,
,,,1.5625,-0.66659611463546753,
,,,1.5649999999999999,-0.79869890213012695,
,,,1.5674999999999999,-0.91060757637023926,
,,,1.5700000000000001,-0.9942927360534668,
,,,1.5725,-1.0532160997390747,
,,,1.575,-1.0225403308868408,
,,,1.5774999999999999,-0.95265448093414307,
,,,1.5800000000000001,-0.84807813167572021,
,,,1.5825,-0.56512099504470825,
,,,1.585,-0.40602070093154907,
,,,1.5874999999999999,-0.24881958961486816,
,,,1.5900000000000001,-0.10289351642131805,
,,,1.5925,0.12715041637420654,
,,,1.595,0.20350317656993866,
,,,1.5974999999999999,0.25324305891990662,
,,,1.6000000000000001,0.27875006198883057,
,,,1.6025,0.27423045039176941,
,,,1.605,0.25454124808311462,
,,,1.6074999999999999,0.22997181117534637,
,,,1.6100000000000001,0.204585000872612,
,,,1.6125,0.16203324496746063,
,,,1.615,0.14717619121074677,
,,,1.6174999999999999,0.13652622699737549,
,,,1.6200000000000001,0.129241943359375,
,,,1.6225000000000001,0.12029886245727539,
,,,1.625,0.11669278144836426,
,,,1.6274999999999999,0.11277417838573456,
,,,1.6299999999999999,0.10832667350769043,
,,,1.6325000000000001,0.098253689706325531,
,,,1.635,0.093205176293849945,
,,,1.6375,0.088565349578857422,
,,,1.6399999999999999,0.0845746248960495,
,,,1.6425000000000001,0.078852973878383636,
,,,1.645,0.076929733157157898,
,,,1.6475,0.075415179133415222,
,,,1.6499999999999999,0.074068903923034668,
,,,1.6525000000000001,0.071135960519313812,
,,,1.655,0.069332920014858246,
,,,1.6575,0.067265436053276062,
,,,1.6599999999999999,0.064981579780578613,
,,,1.6625000000000001,0.060077309608459473,
,,,1.665,0.057649217545986176,
,,,1.6675,0.055269204080104828,
,,,1.6699999999999999,0.052985351532697678,
,,,1.6725000000000001,0.048634015023708344,
,,,1.675,0.046494405716657639,
,,,1.6775,0.044354796409606934,
,,,1.6799999999999999,0.042191147804260254,
,,,1.6825000000000001,0.037767689675092697,
,,,1.6850000000000001,0.03555595874786377,
,,,1.6875,0.033368270844221115,
,,,1.6899999999999999,0.03122866153717041,
,,,1.6924999999999999,0.027237933129072189,
,,,1.6950000000000001,0.025338729843497276,
,,,1.6975,0.023487608879804611,
,,,1.7,0.021636486053466797,
,,,1.7024999999999999,0.017669796943664551,
,,,1.7050000000000001,0.015409986488521099,
,,,1.7075,0.012933811172842979,
,,,1.71,0.010193189606070518,
,,,1.7124999999999999,0.0039186081849038601,
,,,1.7150000000000001,0.00043272972106933594,
,,,1.7175,-0.0031973919831216335,
,,,1.72,-0.006923675537109375,
,,,1.7224999999999999,-0.014544527046382427,
,,,1.7250000000000001,-0.018391013145446777,
,,,1.7275,-0.022285580635070801,
,,,1.73,-0.026252269744873047,
,,,1.7324999999999999,-0.034618377685546875,
,,,1.7350000000000001,-0.03908991813659668,
,,,1.7375,-0.043801866471767426,
,,,1.74,-0.048778258264064789,
,,,1.7424999999999999,-0.059572458267211914,
,,,1.7450000000000001,-0.065438352525234222,
,,,1.7475000000000001,-0.071568690240383148,
,,,1.75,-0.078035593032836914,
,,,1.7524999999999999,-0.091762743890285492,
,,,1.7549999999999999,-0.099022984504699707,
,,,1.7575000000000001,-0.10649959743022919,
,,,1.76,-0.11412044614553452,
,,,1.7625,-0.12969872355461121,
,,,1.7649999999999999,-0.13755998015403748,
,,,1.7675000000000001,-0.14539718627929688,
,,,1.77,-0.15316228568553925,
,,,1.7725,-0.16823570430278778,
,,,1.7749999999999999,-0.1753997802734375,
,,,1.7775000000000001,-0.18217921257019043,
,,,1.78,-0.18850187957286835,
,,,1.7825,-0.19944033026695251,
,,,1.7849999999999999,-0.203935906291008,
,,,1.7875000000000001,-0.20773431658744812,
,,,1.79,-0.21078746020793915,
,,,1.7925,-0.21473011374473572,
,,,1.7949999999999999,-0.21557152271270752,
,,,1.7975000000000001,-0.21566769480705261,
,,,1.8,-0.21492242813110352,
,,,1.8025,-0.2107393741607666,
,,,1.8049999999999999,-0.20713329315185547,
,,,1.8075000000000001,-0.20242135226726532,
,,,1.8100000000000001,-0.19653141498565674,
,,,1.8125,-0.18109738826751709,
,,,1.8149999999999999,-0.1715773344039917,
,,,1.8174999999999999,-0.16095142066478729,
,,,1.8200000000000001,-0.14933983981609344,
,,,1.8225,-0.1238328218460083,
,,,1.825,-0.11032204329967499,
,,,1.8274999999999999,-0.096570849418640137,
,,,1.8300000000000001,-0.082795619964599609,
,,,1.8325,-0.055798094719648361,
,,,1.835,-0.042840242385864258,
,,,1.8374999999999999,-0.030339162796735764,
,,,1.8400000000000001,-0.018391013145446777,
,,,1.8425,0.0037262837868183851,
,,,1.845,0.013799270614981651,
,,,1.8474999999999999,0.023175081238150597,
,,,1.8500000000000001,0.031781595200300217,
,,,1.8525,0.046710770577192307,
,,,1.855,0.052985351532697678,
,,,1.8574999999999999,0.058538716286420822,
,,,1.8600000000000001,0.063370868563652039,
,,,1.8625,0.071232125163078308,
,,,1.865,0.074429512023925781,
,,,1.8674999999999999,0.077218219637870789,
,,,1.8700000000000001,0.079694390296936035,
,,,1.8725000000000001,0.083925530314445496,
,,,1.875,0.085752606391906738,
,,,1.8774999999999999,0.087435446679592133,
,,,1.8799999999999999,0.088998079299926758,
,,,1.8825000000000001,0.091858908534049988,
,,,1.885,0.093157097697257996,
,,,1.8875,0.094407200813293457,
,,,1.8899999999999999,0.095609232783317566,
,,,1.8925000000000001,0.097845003008842468,
,,,1.895,0.098878741264343262,
,,,1.8975,0.099840365350246429,
,,,1.8999999999999999,0.10068178176879883,
,,,1.9025000000000001,0.10193189233541489,
,,,1.905,0.10222037881612778,
,,,1.9075,0.10222037881612778,
,,,1.9099999999999999,0.10195593535900116,
,,,1.9125000000000001,0.10058562457561493,
,,,1.915,0.099551878869533539,
,,,1.9175,0.098446011543273926,
,,,1.9199999999999999,0.097292065620422363,
,,,1.9225000000000001,0.095344781875610352,
,,,1.925,0.094695687294006348,
,,,1.9275,0.094335079193115234,
,,,1.9299999999999999,0.094262957572937012,
,,,1.9325000000000001,0.094888016581535339,
,,,1.9350000000000001,0.095464989542961121,
,,,1.9375,0.096090041100978851,
,,,1.9399999999999999,0.096642971038818359,
,,,1.9424999999999999,0.097292065620422363,
,,,1.9450000000000001,0.097219944000244141,
,,,1.9475,0.096835300326347351,
,,,1.95,0.096162162721157074,
,,,1.9524999999999999,0.094190835952758789,
,,,1.9550000000000001,0.093036890029907227,
,,,1.9575,0.091906987130641937,
,,,1.96,0.09089728444814682,
,,,1.9624999999999999,0.089334651827812195,
,,,1.9650000000000001,0.088805757462978363,
,,,1.9675,0.088348984718322754,
,,,1.97,0.087940298020839691,
,,,1.9724999999999999,0.086954638361930847,
,,,1.9750000000000001,0.08628150075674057,
,,,1.9775,0.085512205958366394,
,,,1.98,0.084622703492641449,
,,,1.9824999999999999,0.082771584391593933,
,,,1.9850000000000001,0.081906124949455261,
,,,1.9875,0.081136822700500488,
,,,1.99,0.080463692545890808,
,,,1.9924999999999999,0.079429946839809418,
,,,1.9950000000000001,0.078997217118740082,
,,,1.9975000000000001,0.078612565994262695,
,,,2,0.078227922320365906,85.020240783691406
,,,2.0024999999999999,0.077458620071411133,
,,,2.0049999999999999,0.07704993337392807,
,,,2.0074999999999998,0.076617203652858734,
,,,2.0099999999999998,0.076160430908203125,
,,,2.0125000000000002,0.075270935893058777,
,,,2.0150000000000001,0.074838206171989441,
,,,2.0175000000000001,0.074453555047512054,
,,,2.02,0.074092946946620941,
,,,2.0225,0.073491930961608887,
,,,2.0249999999999999,0.073227487504482269,
,,,2.0274999999999999,0.072987079620361328,
,,,2.0299999999999998,0.072746679186820984,
,,,2.0325000000000002,0.072193741798400879,
,,,2.0350000000000001,0.071881219744682312,
,,,2.0375000000000001,0.071568690240383148,
,,,2.04,0.071232125163078308,
,,,2.0425,0.070631109178066254,
,,,2.0449999999999999,0.070390701293945312,
,,,2.0474999999999999,0.070198379456996918,
,,,2.0499999999999998,0.070102214813232422,
,,,2.0525000000000002,0.070246458053588867,
,,,2.0550000000000002,0.070462822914123535,
,,,2.0575000000000001,0.070799395442008972,
,,,2.0600000000000001,0.071232125163078308,
,,,2.0625,0.072193741798400879,
,,,2.0649999999999999,0.072650514543056488,
,,,2.0674999999999999,0.073011122643947601,
,,,2.0699999999999998,0.073251530528068542,
,,,2.0724999999999998,0.07317940890789032,
,,,2.0750000000000002,0.072866879403591156,
,,,2.0775000000000001,0.072362028062343597,
,,,2.0800000000000001,0.071712933480739594,
,,,2.0825,0.070126257836818695,
,,,2.085,0.069260798394680023,
,,,2.0874999999999999,0.068395338952541351,
,,,2.0899999999999999,0.067602001130580902,
,,,2.0924999999999998,0.066255733370780945,
,,,2.0950000000000002,0.065774917602539062,
,,,2.0975000000000001,0.065462395548820496,
,,,2.1000000000000001,0.06531815230846405,
,,,2.1025,0.065462395548820496,
,,,2.105,0.065678760409355164,
,,,2.1074999999999999,0.065943203866481781,
,,,2.1099999999999999,0.066183611750602722,
,,,2.1124999999999998,0.06639997661113739,
,,,2.1150000000000002,0.066279768943786621,
,,,2.1175000000000002,0.066039368510246277,
,,,2.1200000000000001,0.06565471738576889,
,,,2.1225000000000001,0.064596936106681824,
,,,2.125,0.063995920121669769,
,,,2.1274999999999999,0.063394904136657715,
,,,2.1299999999999999,0.062841974198818207,
,,,2.1324999999999998,0.061880350112915039,
,,,2.1349999999999998,0.061519742012023926,
,,,2.1375000000000002,0.061231255531311035,
,,,2.1400000000000001,0.060990851372480392,
,,,2.1425000000000001,0.060990851372480392,
,,,2.145,0.06103893369436264,
,,,2.1475,0.061135094612836838,
,,,2.1499999999999999,0.06120721623301506,
,,,2.1524999999999999,0.061231255531311035,
,,,2.1549999999999998,0.06108701229095459,
,,,2.1575000000000002,0.060846608132123947,
,,,2.1600000000000001,0.060461960732936859,
,,,2.1625000000000001,0.059404175728559494,
,,,2.165,0.058779120445251465,
,,,2.1675,0.058130025863647461,
,,,2.1699999999999999,0.057529013603925705,
,,,2.1724999999999999,0.056519310921430588,
,,,2.1749999999999998,0.056182742118835449,
,,,2.1775000000000002,0.055918298661708832,
,,,2.1800000000000002,0.055750012397766113,
,,,2.1825000000000001,0.055533647537231445,
,,,2.1850000000000001,0.055413447320461273,
,,,2.1875,0.055269204080104828,
,,,2.1899999999999999,0.05505283921957016,
,,,2.1924999999999999,0.054620109498500824,
,,,2.1949999999999998,0.054451823234558105,
,,,2.1974999999999998,0.054379701614379883,
,,,2.2000000000000002,0.054475866258144379,
,,,2.2025000000000001,0.055124960839748383,
,,,2.2050000000000001,0.055629812180995941,
,,,2.2075,0.056158702820539474,
,,,2.21,0.056663554161787033,
,,,2.2124999999999999,0.057192444801330566,
,,,2.2149999999999999,0.057096283882856369,
,,,2.2174999999999998,0.056735675781965256,
,,,2.2200000000000002,0.055269204080104828,
,,,2.2225000000000001,0.054283540695905685,
,,,2.2250000000000001,0.053249798715114594,
,,,2.2275,0.052216053009033203,
,,,2.23,0.051326554268598557,
,,,2.2324999999999999,0.050100486725568771,
,,,2.2349999999999999,0.049884121865034103,
,,,2.2374999999999998,0.049932204186916351,
,,,2.2400000000000002,0.050220690667629242,
,,,2.2425000000000002,0.051230393350124359,
,,,2.2450000000000001,0.051759283989667892,
,,,2.2475000000000001,0.052167974412441254,
,,,2.25,0.052192013710737228,
,,,2.2524999999999999,0.051639080047607422,
,,,2.2549999999999999,0.050701498985290527,
,,,2.2574999999999998,0.04935523122549057,
,,,2.2599999999999998,0.045749150216579437,
,,,2.2625000000000002,0.043633580207824707,
,,,2.2650000000000001,0.041445892304182053,
,,,2.2675000000000001,0.039282243698835373,
,,,2.27,0.035291515290737152,
,,,2.2725,0.033608675003051758,
,,,2.2749999999999999,0.032190285623073578,
,,,2.2774999999999999,0.03106037899851799,
,,,2.2799999999999998,0.029714107513427734,
,,,2.2825000000000002,0.02952178381383419,
,,,2.2850000000000001,0.029593905434012413,
,,,2.2875000000000001,0.029930472373962402,
,,,2.29,0.031108459457755089,
,,,2.2925,0.031757555902004242,
,,,2.2949999999999999,0.032238364219665527,
,,,2.2974999999999999,0.032382607460021973,
,,,2.2999999999999998,0.030988257378339767,
,,,2.3025000000000002,0.029089054092764854,
,,,2.3050000000000002,0.026204189285635948,
,,,2.3075000000000001,0.022309621796011925,
,,,2.3100000000000001,0.011779865249991417,
,,,2.3125,0.0055774054490029812,
,,,2.3149999999999999,-0.00084141892148181796,
,,,2.3174999999999999,-0.0070198378525674343,
,,,2.3199999999999998,-0.017020702362060547,
,,,2.3224999999999998,-0.020097892731428146,
,,,2.3250000000000002,-0.021516283974051476,
,,,2.3275000000000001,-0.021203756332397461,
,,,2.3300000000000001,-0.015554229728877544,
,,,2.3325,-0.010649959556758404,
,,,2.335,-0.004735986702144146,
,,,2.3374999999999999,0.0018270810833200812,
,,,2.3399999999999999,0.015578269958496094,
,,,2.3424999999999998,0.022213459014892578,
,,,2.3450000000000002,0.028439959511160851,
,,,2.3475000000000001,0.034185647964477539,
,,,2.3500000000000001,0.043946109712123871,
,,,2.3525,0.047912798821926117,
,,,2.355,0.051254432648420334,
,,,2.3574999999999999,0.053826771676540375,
,,,2.3599999999999999,0.056278906762599945,
,,,2.3624999999999998,0.055846177041530609,
,,,2.3650000000000002,0.054235458374023438,
,,,2.3675000000000002,0.051470797508955002,
,,,2.3700000000000001,0.043633580207824707,
,,,2.3725000000000001,0.039690934121608734,
,,,2.375,0.036806069314479828,
,,,2.3774999999999999,0.035964649170637131,
,,,2.3799999999999999,0.044450961053371429,
,,,2.3824999999999998,0.055341325700283051,
,,,2.3849999999999998,0.071232125163078308,
,,,2.3875000000000002,0.091906987130641937,
,,,2.3900000000000001,0.14409899711608887,
,,,2.3925000000000001,0.1723226010799408,
,,,2.395,0.19883930683135986,
,,,2.3975,0.22076427936553955,
,,,2.3999999999999999,0.23807346820831299,
,,,2.4024999999999999,0.22701482474803925,
,,,2.4049999999999998,0.19900760054588318,
,,,2.4075000000000002,0.15186409652233124,
,,,2.4100000000000001,-0.0032695136032998562,
,,,2.4125000000000001,-0.10981719195842743,
,,,2.415,-0.23208737373352051,
,,,2.4175,-0.36536812782287598,
,,,2.4199999999999999,-0.63892543315887451,
,,,2.4224999999999999,-0.76357567310333252,
,,,2.4249999999999998,-0.86911362409591675,
,,,2.4275000000000002,-0.94791853427886963,
,,,2.4300000000000002,-1.002442479133606,
,,,2.4325000000000001,-0.97246390581130981,
,,,2.4350000000000001,-0.90515041351318359,
,,,2.4375,-0.80478113889694214,
,,,2.4399999999999999,-0.53369998931884766,
,,,2.4424999999999999,-0.38142722845077515,
,,,2.4449999999999998,-0.23107767105102539,
,,,2.4474999999999998,-0.09164254367351532,
,,,2.4500000000000002,0.12743890285491943,
,,,2.4525000000000001,0.19953648746013641,
,,,2.4550000000000001,0.24583856761455536,
,,,2.4575,0.26858091354370117,
,,,2.46,0.25995036959648132,
,,,2.4624999999999999,0.23867449164390564,
,,,2.4649999999999999,0.21268665790557861,
,,,2.4674999999999998,0.18604974448680878,
,,,2.4700000000000002,0.14135837554931641,
,,,2.4725000000000001,0.12570798397064209,
,,,2.4750000000000001,0.11448105424642563,
,,,2.4775,0.10683616250753403,
,,,2.48,0.097748838365077972,
,,,2.4824999999999999,0.094190835952758789,
,,,2.4849999999999999,0.090296268463134766,
,,,2.4874999999999998,0.085776649415493011,
,,,2.4900000000000002,0.074910327792167664,
,,,2.4925000000000002,0.069116555154323578,
,,,2.4950000000000001,0.06353914737701416,
,,,2.4975000000000001,0.058442555367946625,
,,,2.5,0.050316851586103439,
,,,2.5024999999999999,0.047287743538618088,
,,,2.5049999999999999,0.044811569154262543,
,,,2.5074999999999998,0.042720042169094086,
,,,2.5099999999999998,0.039017796516418457,
,,,2.5125000000000002,0.037142634391784668,
,,,2.5150000000000001,0.035195350646972656,
,,,2.5175000000000001,0.033151905983686447,
,,,2.52,0.028920769691467285,
,,,2.5225,0.026781162247061729,
,,,2.5249999999999999,0.024689635261893272,
,,,2.5274999999999999,0.022646188735961914,
,,,2.5299999999999998,0.018655460327863693,
,,,2.5325000000000002,0.016684135422110558,
,,,2.5350000000000001,0.014688770286738873,
,,,2.5375000000000001,0.012669364921748638,
,,,2.54,0.0086545944213867188,
,,,2.5425,0.006659229751676321,
,,,2.5449999999999999,0.0046638650819659233,
,,,2.5474999999999999,0.0027165811043232679,
,,,2.5499999999999998,-0.0011539459228515625,
,,,2.5525000000000002,-0.0031252703629434109,
,,,2.5550000000000002,-0.0051687164232134819,
,,,2.5575000000000001,-0.0072842836380004883,
,,,2.5600000000000001,-0.011996230110526085,
,,,2.5625,-0.01461664866656065,
,,,2.5649999999999999,-0.017477473244071007,
,,,2.5674999999999999,-0.020554661750793457,
,,,2.5699999999999998,-0.027406215667724609,
,,,2.5724999999999998,-0.031084418296813965,
,,,2.5750000000000002,-0.034906864166259766,
,,,2.5775000000000001,-0.038801431655883789,
,,,2.5800000000000001,-0.046590566635131836,
,,,2.5825,-0.050485134124755859,
,,,2.585,-0.054331623017787933,
,,,2.5874999999999999,-0.058178108185529709,
,,,2.5899999999999999,-0.066063404083251953,
,,,2.5924999999999998,-0.070198379456996918,
,,,2.5950000000000002,-0.07454971969127655,
,,,2.5975000000000001,-0.0791655033826828,
,,,2.6000000000000001,-0.089382730424404144,
,,,2.6025,-0.095080338418483734,
,,,2.605,-0.10121067613363266,
,,,2.6074999999999999,-0.10779778659343719,
,,,2.6099999999999999,-0.12231826782226562,
,,,2.6124999999999998,-0.13020357489585876,
,,,2.6150000000000002,-0.13840138912200928,
,,,2.6175000000000002,-0.14683961868286133,
,,,2.6200000000000001,-0.16398052871227264,
,,,2.6225000000000001,-0.17244279384613037,
,,,2.625,-0.18068870902061462,
,,,2.6274999999999999,-0.18859803676605225,
,,,2.6299999999999999,-0.20314256846904755,
,,,2.6324999999999998,-0.20965754985809326,
,,,2.6349999999999998,-0.21564364433288574,
,,,2.6375000000000002,-0.22107681632041931,
,,,2.6400000000000001,-0.23045262694358826,
,,,2.6425000000000001,-0.2344193160533905,
,,,2.645,-0.23792922496795654,
,,,2.6475,-0.24098238348960876,
,,,2.6499999999999999,-0.24559816718101501,
,,,2.6524999999999999,-0.24696847796440125,
,,,2.6549999999999998,-0.24759352207183838,
,,,2.6575000000000002,-0.24730503559112549,
,,,2.6600000000000001,-0.24343451857566833,
,,,2.6625000000000001,-0.23963610827922821,
,,,2.665,-0.23449143767356873,
,,,2.6675,-0.22792837023735046,
,,,2.6699999999999999,-0.21081149578094482,
,,,2.6724999999999999,-0.20035386085510254,
,,,2.6749999999999998,-0.18879036605358124,
,,,2.6775000000000002,-0.17626523971557617,
,,,2.6800000000000002,-0.14907538890838623,
,,,2.6825000000000001,-0.13477127254009247,
,,,2.6850000000000001,-0.12032290548086166,
,,,2.6875,-0.10589858144521713,
,,,2.6899999999999999,-0.077963471412658691,
,,,2.6924999999999999,-0.064789257943630219,
,,,2.6949999999999998,-0.052288174629211426,
,,,2.6974999999999998,-0.040532350540161133,
,,,2.7000000000000002,-0.019400715827941895,
,,,2.7025000000000001,-0.0099527835845947266,
,,,2.7050000000000001,-0.0012260675430297852,
,,,2.7075,0.006875594612210989,
,,,2.71,0.021275877952575684,
,,,2.7124999999999999,0.0276947021484375,
,,,2.7149999999999999,0.033584635704755783,
,,,2.7174999999999998,0.039017796516418457,
,,,2.7200000000000002,0.04832148551940918,
,,,2.7225000000000001,0.052192013710737228,
,,,2.7250000000000001,0.055509608238935471,
,,,2.7275,0.058298312127590179,
,,,2.73,0.062385201454162598,
,,,2.7324999999999999,0.063851676881313324,
,,,2.7349999999999999,0.065005622804164886,
,,,2.7374999999999998,0.066015325486660004,
,,,2.7400000000000002,0.067914530634880066,
,,,2.7425000000000002,0.068948268890380859,
,,,2.7450000000000001,0.070102214813232422,
,,,2.7475000000000001,0.071376368403434753,
,,,2.75,0.074068903923034668,
,,,2.7524999999999999,0.075391136109828949,
,,,2.7549999999999999,0.076593160629272461,
,,,2.7574999999999998,0.077626906335353851,
,,,2.7599999999999998,0.079045295715332031,
,,,2.7625000000000002,0.079381868243217468,
,,,2.7650000000000001,0.07950206845998764,
,,,2.7675000000000001,0.079429946839809418,
,,,2.77,0.07887701690196991,
,,,2.7725,0.078492365777492523,
,,,2.7749999999999999,0.078107714653015137,
,,,2.7774999999999999,0.077747106552124023,
,,,2.7799999999999998,0.077218219637870789,
,,,2.7825000000000002,0.077001854777336121,
,,,2.7850000000000001,0.076809525489807129,
,,,2.7875000000000001,0.076593160629272461,
,,,2.79,0.075992152094841003,
,,,2.7925,0.075559422373771667,
,,,2.7949999999999999,0.075054571032524109,
,,,2.7974999999999999,0.074453555047512054,
,,,2.7999999999999998,0.073131322860717773,
,,,2.8025000000000002,0.072410106658935547,
,,,2.8050000000000002,0.07168889045715332,
,,,2.8075000000000001,0.070943638682365417,
,,,2.8100000000000001,0.069356963038444519,
,,,2.8125,0.068467460572719574,
,,,2.8149999999999999,0.067529879510402679,
,,,2.8174999999999999,0.066472098231315613,
,,,2.8199999999999998,0.064043998718261719,
,,,2.8224999999999998,0.062649652361869812,
,,,2.8250000000000002,0.061135094612836838,
,,,2.8275000000000001,0.059548418968915939,
,,,2.8300000000000001,0.056206785142421722,
,,,2.8325,0.054596066474914551,
,,,2.835,0.053081512451171875,
,,,2.8374999999999999,0.051735244691371918,
,,,2.8399999999999999,0.049739878624677658,
,,,2.8424999999999998,0.049114823341369629,
,,,2.8450000000000002,0.048706136643886566,
,,,2.8475000000000001,0.04844168946146965,
,,,2.8500000000000001,0.048105120658874512,
,,,2.8525,0.047840677201747894,
,,,2.855,0.047431986778974533,
,,,2.8574999999999999,0.046830974519252777,
,,,2.8599999999999999,0.045051973313093185,
,,,2.8624999999999998,0.043922066688537598,
,,,2.8650000000000002,0.042720042169094086,
,,,2.8675000000000002,0.041518013924360275,
,,,2.8700000000000001,0.03937840461730957,
,,,2.8725000000000001,0.038585066795349121,
,,,2.875,0.038032136857509613,
,,,2.8774999999999999,0.037767689675092697,
,,,2.8799999999999999,0.037911932915449142,
,,,2.8824999999999998,0.038248501718044281,
,,,2.8849999999999998,0.038681231439113617,
,,,2.8875000000000002,0.039113961160182953,
,,,2.8900000000000001,0.039787095040082932,
,,,2.8925000000000001,0.039955377578735352,
,,,2.895,0.040003459900617599,
,,,2.8975,0.039955377578735352,
,,,2.8999999999999999,0.039763055741786957,
,,,2.9024999999999999,0.039690934121608734,
,,,2.9049999999999998,0.039666891098022461,
,,,2.9075000000000002,0.039739012718200684,
,,,2.9100000000000001,0.04017174243927002,
,,,2.9125000000000001,0.040484271943569183,
,,,2.915,0.040844880044460297,
,,,2.9175,0.04120548814535141,
,,,2.9199999999999999,0.041854582726955414,
,,,2.9224999999999999,0.042070947587490082,
,,,2.9249999999999998,0.042191147804260254,
,,,2.9275000000000002,0.042191147804260254,
,,,2.9300000000000002,0.041950743645429611,
,,,2.9325000000000001,0.041734378784894943,
,,,2.9350000000000001,0.041493974626064301,
,,,2.9375,0.041277609765529633,
,,,2.9399999999999999,0.040989123284816742,
,,,2.9424999999999999,0.040941040962934494,
,,,2.9449999999999998,0.040965080261230469,
,,,2.9474999999999998,0.041013162583112717,
,,,2.9500000000000002,0.041157405823469162,
,,,2.9525000000000001,0.04120548814535141,
,,,2.9550000000000001,0.041277609765529633,
,,,2.9575,0.041349731385707855,
,,,2.96,0.041590135544538498,
,,,2.9624999999999999,0.041806500405073166,
,,,2.9649999999999999,0.042094986885786057,
,,,2.9674999999999998,0.042479634284973145,
,,,2.9700000000000002,0.043321054428815842,
,,,2.9725000000000001,0.043753784149885178,
,,,2.9750000000000001,0.044114392250776291,
,,,2.9775,0.044402878731489182,
,,,2.98,0.044691365212202072,
,,,2.9824999999999999,0.044643282890319824,
,,,2.9849999999999999,0.044499039649963379,
,,,2.9874999999999998,0.044258635491132736,
,,,2.9900000000000002,0.043609540909528732,
,,,2.9925000000000002,0.043224893510341644,
,,,2.9950000000000001,0.042864285409450531,
,,,2.9975000000000001,0.042527716606855392,
,,,3,0.041902661323547363,78.358207702636719
,,,3.0024999999999999,0.041614174842834473,
,,,3.0049999999999999,0.041325688362121582,
,,,3.0074999999999998,0.041013162583112717,
,,,3.0099999999999998,0.040267907083034515,
,,,3.0125000000000002,0.039859216660261154,
,,,3.0150000000000001,0.039426486939191818,
,,,3.0175000000000001,0.039017796516418457,
,,,3.02,0.038368701934814453,
,,,3.0225,0.038152337074279785,
,,,3.0249999999999999,0.038032136857509613,
,,,3.0274999999999999,0.038032136857509613,
,,,3.0299999999999998,0.03829658031463623,
,,,3.0325000000000002,0.038536988198757172,
,,,3.0350000000000001,0.038849513977766037,
,,,3.0375000000000001,0.039186082780361176,
,,,3.04,0.039931338280439377,
,,,3.0425,0.040219824761152267,
,,,3.0449999999999999,0.040412150323390961,
,,,3.0474999999999999,0.040484271943569183,
,,,3.0499999999999998,0.040027499198913574,
,,,3.0525000000000002,0.039498608559370041,
,,,3.0550000000000002,0.038801431655883789,
,,,3.0575000000000001,0.037984054535627365,
,,,3.0600000000000001,0.036156974732875824,
,,,3.0625,0.035291515290737152,
,,,3.0649999999999999,0.034522216767072678,
,,,3.0674999999999999,0.033921204507350922,
,,,3.0699999999999998,0.033272109925746918,
,,,3.0724999999999998,0.03322402760386467,
,,,3.0750000000000002,0.033368270844221115,
,,,3.0775000000000001,0.033656757324934006,
,,,3.0800000000000001,0.034498177468776703,
,,,3.0825,0.034930907189846039,
,,,3.085,0.035267472267150879,
,,,3.0874999999999999,0.035483837127685547,
,,,3.0899999999999999,0.035339593887329102,
,,,3.0924999999999998,0.034978985786437988,
,,,3.0950000000000002,0.034450095146894455,
,,,3.0975000000000001,0.033825039863586426,
,,,3.1000000000000001,0.032502811402082443,
,,,3.1025,0.031949877738952637,
,,,3.105,0.031565230339765549,
,,,3.1074999999999999,0.031324826180934906,
,,,3.1099999999999999,0.031396947801113129,
,,,3.1124999999999998,0.031637351959943771,
,,,3.1150000000000002,0.031949877738952637,
,,,3.1175000000000002,0.032286446541547775,
,,,3.1200000000000001,0.032815337181091309,
,,,3.1225000000000001,0.032911501824855804,
,,,3.125,0.032911501824855804,
,,,3.1274999999999999,0.032743215560913086,
,,,3.1299999999999999,0.032166242599487305,
,,,3.1324999999999998,0.031829677522182465,
,,,3.1349999999999998,0.031469069421291351,
,,,3.1375000000000002,0.031180581077933311,
,,,3.1400000000000001,0.030723810195922852,
,,,3.1425000000000001,0.030507445335388184,
,,,3.145,0.030194919556379318,
,,,3.1475,0.029762189835309982,
,,,3.1499999999999999,0.028079351410269737,
,,,3.1524999999999999,0.026781162247061729,
,,,3.1549999999999998,0.025146406143903732,
,,,3.1575000000000002,0.023247202858328819,
,,,3.1600000000000001,0.01891990564763546,
,,,3.1625000000000001,0.016732215881347656,
,,,3.165,0.014664730057120323,
,,,3.1675,0.012885729782283306,
,,,3.1699999999999999,0.010553797706961632,
,,,3.1724999999999999,0.010121067985892296,
,,,3.1749999999999998,0.010217229835689068,
,,,3.1775000000000002,0.0107701625674963,
,,,3.1800000000000002,0.012957851402461529,
,,,3.1825000000000001,0.01430412195622921,
,,,3.1850000000000001,0.015626352280378342,
,,,3.1875,0.016684135422110558,
,,,3.1899999999999999,0.017309188842773438,
,,,3.1924999999999999,0.016563933342695236,
,,,3.1949999999999998,0.01492917537689209,
,,,3.1974999999999998,0.012356838211417198,
,,,3.2000000000000002,0.0043272972106933594,
,,,3.2025000000000001,-0.00098566222004592419,
,,,3.2050000000000001,-0.0069477162323892117,
,,,3.2075,-0.013318459503352642,
,,,3.21,-0.026132067665457726,
,,,3.2124999999999999,-0.031805634498596191,
,,,3.2149999999999999,-0.036517582833766937,
,,,3.2174999999999998,-0.039883255958557129,
,,,3.2200000000000002,-0.041614174842834473,
,,,3.2225000000000001,-0.039666891098022461,
,,,3.2250000000000001,-0.036012731492519379,
,,,3.2275,-0.030868053436279297,
,,,3.23,-0.017693838104605675,
,,,3.2324999999999999,-0.01060187816619873,
,,,3.2349999999999999,-0.0037984054069966078,
,,,3.2374999999999998,0.0023800134658813477,
,,,3.2400000000000002,0.011924108490347862,
,,,3.2425000000000002,0.015289783477783203,
,,,3.2450000000000001,0.017958283424377441,
,,,3.2475000000000001,0.020121932029724121,
,,,3.25,0.023872256278991699,
,,,3.2524999999999999,0.025651257485151291,
,,,3.2549999999999999,0.027261972427368164,
,,,3.2574999999999998,0.028439959511160851,
,,,3.2599999999999998,0.028223594650626183,
,,,3.2625000000000002,0.026396512985229492,
,,,3.2650000000000001,0.023463567718863487,
,,,3.2675000000000001,0.019857486709952354,
,,,3.27,0.014135837554931641,
,,,3.2725,0.014496445655822754,
,,,3.2749999999999999,0.018847784027457237,
,,,3.2774999999999999,0.028391879051923752,
,,,3.2799999999999998,0.065678760409355164,
,,,3.2825000000000002,0.093036890029907227,
,,,3.2850000000000001,0.12465020269155502,
,,,3.2875000000000001,0.15830695629119873,
,,,3.29,0.21963438391685486,
,,,3.2925,0.24016499519348145,
,,,3.2949999999999999,0.24896383285522461,
,,,3.2974999999999999,0.24247288703918457,
,,,3.2999999999999998,0.17244279384613037,
,,,3.3025000000000002,0.10548989474773407,
,,,3.3050000000000002,0.016924541443586349,
,,,3.3075000000000001,-0.091738700866699219,
,,,3.3100000000000001,-0.35546344518661499,
,,,3.3125,-0.49968263506889343,
,,,3.3149999999999999,-0.64267575740814209,
,,,3.3174999999999999,-0.77626907825469971,
,,,3.3199999999999998,-0.98215222358703613,
,,,3.3224999999999998,-1.0398255586624146,
,,,3.3250000000000002,-1.060380220413208,
,,,3.3275000000000001,-1.0415804386138916,
,,,3.3300000000000001,-0.89132708311080933,
,,,3.3325,-0.76968193054199219,
,,,3.335,-0.62741005420684814,
,,,3.3374999999999999,-0.47417563199996948,
,,,3.3399999999999999,-0.17424583435058594,
,,,3.3424999999999998,-0.044859647750854492,
,,,3.3450000000000002,0.062361162155866623,
,,,3.3475000000000001,0.14417111873626709,
,,,3.3500000000000001,0.23105363547801971,
,,,3.3525,0.24119874835014343,
,,,3.355,0.23494820296764374,
,,,3.3574999999999999,0.21744668483734131,
,,,3.3599999999999999,0.16777893900871277,
,,,3.3624999999999998,0.1431373804807663,
,,,3.3650000000000002,0.12181341648101807,
,,,3.3675000000000002,0.10474463552236557,
,,,3.3700000000000001,0.082987949252128601,
,,,3.3725000000000001,0.076737403869628906,
,,,3.375,0.072217784821987152,
,,,3.3774999999999999,0.068467460572719574,
,,,3.3799999999999999,0.061014890670776367,
,,,3.3824999999999998,0.05675971508026123,
,,,3.3849999999999998,0.052192013710737228,
,,,3.3875000000000002,0.047504108399152756,
,,,3.3900000000000001,0.038536988198757172,
,,,3.3925000000000001,0.034570299088954926,
,,,3.395,0.031084418296813965,
,,,3.3975,0.028055310249328613,
,,,3.3999999999999999,0.02307891845703125,
,,,3.4024999999999999,0.020987391471862793,
,,,3.4049999999999998,0.019064148887991905,
,,,3.4075000000000002,0.017261108383536339,
,,,3.4100000000000001,0.013895432464778423,
,,,3.4125000000000001,0.012308756820857525,
,,,3.415,0.010818243026733398,
,,,3.4175,0.009447932243347168,
,,,3.4199999999999999,0.0069477162323892117,
,,,3.4224999999999999,0.0058178110048174858,
,,,3.4249999999999998,0.0047119460068643093,
,,,3.4275000000000002,0.0035820405464619398,
,,,3.4300000000000002,0.00098566222004592419,
,,,3.4325000000000001,-0.00060101354029029608,
,,,3.4350000000000001,-0.002476175781339407,
,,,3.4375,-0.0046638650819659233,
,,,3.4399999999999999,-0.0099527835845947266,
,,,3.4424999999999999,-0.013005932793021202,
,,,3.4449999999999998,-0.016179284080862999,
,,,3.4474999999999998,-0.019400715827941895,
,,,3.4500000000000002,-0.025555094704031944,
,,,3.4525000000000001,-0.028295716270804405,
,,,3.4550000000000001,-0.030747851356863976,
,,,3.4575,-0.032911501824855804,
,,,3.46,-0.036709904670715332,
,,,3.4624999999999999,-0.038585066795349121,
,,,3.4649999999999999,-0.040628515183925629,
,,,3.4674999999999998,-0.042960446327924728,
,,,3.4700000000000002,-0.048778258264064789,
,,,3.4725000000000001,-0.052336256951093674,
,,,3.4750000000000001,-0.056230824440717697,
,,,3.4775,-0.060389839112758636,
,,,3.48,-0.069092512130737305,
,,,3.4824999999999999,-0.073491930961608887,
,,,3.4849999999999999,-0.077867314219474792,
,,,3.4874999999999998,-0.082242690026760101,
,,,3.4900000000000002,-0.091281935572624207,
,,,3.4925000000000002,-0.096090041100978851,
,,,3.4950000000000001,-0.10123471915721893,
,,,3.4975000000000001,-0.1067640408873558,
,,,3.5,-0.11921703815460205,
,,,3.5024999999999999,-0.12614071369171143,
,,,3.5049999999999999,-0.13354520499706268,
,,,3.5074999999999998,-0.14138242602348328,
,,,3.5099999999999998,-0.15816271305084229,
,,,3.5125000000000002,-0.16693751513957977,
,,,3.5150000000000001,-0.17590463161468506,
,,,3.5175000000000001,-0.18494388461112976,
,,,3.52,-0.20275792479515076,
,,,3.5225,-0.21134039759635925,
,,,3.5249999999999999,-0.21953821182250977,
,,,3.5274999999999999,-0.22725522518157959,
,,,3.5299999999999998,-0.240862175822258,
,,,3.5325000000000002,-0.24665594100952148,
,,,3.5350000000000001,-0.25172850489616394,
,,,3.5375000000000001,-0.25607985258102417,
,,,3.54,-0.2628592848777771,
,,,3.5425,-0.26535949110984802,
,,,3.5449999999999999,-0.26737889647483826,
,,,3.5474999999999999,-0.26886940002441406,
,,,3.5499999999999998,-0.27021569013595581,
,,,3.5525000000000002,-0.26987910270690918,
,,,3.5550000000000002,-0.26867708563804626,
,,,3.5575000000000001,-0.26644131541252136,
,,,3.5600000000000001,-0.25821945071220398,
,,,3.5625,-0.25201699137687683,
,,,3.5649999999999999,-0.24432401359081268,
,,,3.5674999999999999,-0.23516456782817841,
,,,3.5699999999999998,-0.21285495162010193,
,,,3.5724999999999998,-0.20006537437438965,
,,,3.5750000000000002,-0.18643438816070557,
,,,3.5775000000000001,-0.17227451503276825,
,,,3.5800000000000001,-0.14318546652793884,
,,,3.5825,-0.12873709201812744,
,,,3.585,-0.11457721889019012,
,,,3.5874999999999999,-0.10085006803274155,
,,,3.5899999999999999,-0.074982449412345886,
,,,3.5924999999999998,-0.062890052795410156,
,,,3.5950000000000002,-0.051374636590480804,
,,,3.5975000000000001,-0.040412150323390961,
,,,3.6000000000000001,-0.020218094810843468,
,,,3.6025,-0.01105864904820919,
,,,3.605,-0.0025482974015176296,
,,,3.6074999999999999,0.0052167973481118679,
,,,3.6099999999999999,0.018439095467329025,
,,,3.6124999999999998,0.023872256278991699,
,,,3.6150000000000002,0.028560161590576172,
,,,3.6175000000000002,0.032623015344142914,
,,,3.6200000000000001,0.039234161376953125,
,,,3.6225000000000001,0.041974782943725586,
,,,3.625,0.044475000351667404,
,,,3.6274999999999999,0.046782892197370529,
,,,3.6299999999999999,0.050893824547529221,
,,,3.6324999999999998,0.052648782730102539,
,,,3.6349999999999998,0.054211419075727463,
,,,3.6375000000000002,0.055533647537231445,
,,,3.6400000000000001,0.057432852685451508,
,,,3.6425000000000001,0.058033864945173264,
,,,3.645,0.058418512344360352,
,,,3.6475,0.058658920228481293,
,,,3.6499999999999999,0.058779120445251465,
,,,3.6524999999999999,0.058731041848659515,
,,,3.6549999999999998,0.058610837906599045,
,,,3.6575000000000002,0.058442555367946625,
,,,3.6600000000000001,0.057961743324995041,
,,,3.6625000000000001,0.057625174522399902,
,,,3.665,0.057240527123212814,
,,,3.6675,0.056855879724025726,
,,,3.6699999999999999,0.056086581200361252,
,,,3.6724999999999999,0.055822134017944336,
,,,3.6749999999999998,0.055653851479291916,
,,,3.6775000000000002,0.055581729859113693,
,,,3.6800000000000002,0.055798094719648361,
,,,3.6825000000000001,0.055966377258300781,
,,,3.6850000000000001,0.0561346635222435,
,,,3.6875,0.056230824440717697,
,,,3.6899999999999999,0.056158702820539474,
,,,3.6924999999999999,0.056014459580183029,
,,,3.6949999999999998,0.055798094719648361,
,,,3.6974999999999998,0.055557690560817719,
,,,3.7000000000000002,0.055124960839748383,
,,,3.7025000000000001,0.054932635277509689,
,,,3.7050000000000001,0.054692231118679047,
,,,3.7075,0.054379701614379883,
,,,3.71,0.053345959633588791,
,,,3.7124999999999999,0.052576661109924316,
,,,3.7149999999999999,0.05168716236948967,
,,,3.7174999999999998,0.050701498985290527,
,,,3.7200000000000002,0.048778258264064789,
,,,3.7225000000000001,0.048008959740400314,
,,,3.7250000000000001,0.047407947480678558,
,,,3.7275,0.046999257057905197,
,,,3.73,0.046638648957014084,
,,,3.7324999999999999,0.046542488038539886,
,,,3.7349999999999999,0.046422284096479416,
,,,3.7374999999999998,0.046133797615766525,
,,,3.7400000000000002,0.045051973313093185,
,,,3.7425000000000002,0.044234596192836761,
,,,3.7450000000000001,0.043297015130519867,
,,,3.7475000000000001,0.042311351746320724,
,,,3.75,0.040484271943569183,
,,,3.7524999999999999,0.039811134338378906,
,,,3.7549999999999999,0.039354365319013596,
,,,3.7574999999999998,0.039113961160182953,
,,,3.7599999999999998,0.03908991813659668,
,,,3.7625000000000002,0.039186082780361176,
,,,3.7650000000000001,0.039258204400539398,
,,,3.7675000000000001,0.03921012207865715,
,,,3.77,0.038681231439113617,
,,,3.7725,0.038224458694458008,
,,,3.7749999999999999,0.0376715287566185,
,,,3.7774999999999999,0.037118595093488693,
,,,3.7799999999999998,0.036205053329467773,
,,,3.7825000000000002,0.035964649170637131,
,,,3.7850000000000001,0.035892527550458908,
,,,3.7875000000000001,0.035964649170637131,
,,,3.79,0.036445461213588715,
,,,3.7925,0.036733947694301605,
,,,3.7949999999999999,0.036974351853132248,
,,,3.7974999999999999,0.037118595093488693,
,,,3.7999999999999998,0.036998391151428223,
,,,3.8025000000000002,0.036637783050537109,
,,,3.8050000000000002,0.036108892410993576,
,,,3.8075000000000001,0.035387676209211349,
,,,3.8100000000000001,0.03351251408457756,
,,,3.8125,0.032430689781904221,
,,,3.8149999999999999,0.031372904777526855,
,,,3.8174999999999999,0.030339162796735764,
,,,3.8199999999999998,0.028656324371695518,
,,,3.8224999999999998,0.028055310249328613,
,,,3.8250000000000002,0.027670662850141525,
,,,3.8275000000000001,0.027454297989606857,
,,,3.8300000000000001,0.02752641960978508,
,,,3.8325,0.027742784470319748,
,,,3.835,0.028055310249328613,
,,,3.8374999999999999,0.028391879051923752,
,,,3.8399999999999999,0.029040973633527756,
,,,3.8424999999999998,0.029257338494062424,
,,,3.8450000000000002,0.029377540573477745,
,,,3.8475000000000001,0.029377540573477745,
,,,3.8500000000000001,0.029137134552001953,
,,,3.8525,0.028968852013349533,
,,,3.855,0.028824608772993088,
,,,3.8574999999999999,0.028728445991873741,
,,,3.8599999999999999,0.028800567612051964,
,,,3.8624999999999998,0.02889673039317131,
,,,3.8650000000000002,0.028992891311645508,
,,,3.8675000000000002,0.029016932472586632,
,,,3.8700000000000001,0.02860824391245842,
,,,3.8725000000000001,0.028103392571210861,
,,,3.875,0.027382176369428635,
,,,3.8774999999999999,0.026492675766348839,
,,,3.8799999999999999,0.024497311562299728,
,,,3.8824999999999998,0.02353568933904171,
,,,3.8849999999999998,0.022742351517081261,
,,,3.8875000000000002,0.022117298096418381,
,,,3.8900000000000001,0.021636486053466797,
,,,3.8925000000000001,0.021756689995527267,
,,,3.895,0.022093256935477257,
,,,3.8975,0.022574067115783691,
,,,3.8999999999999999,0.023703973740339279,
,,,3.9024999999999999,0.024184783920645714,
,,,3.9049999999999998,0.024545392021536827,
,,,3.9075000000000002,0.024713676422834396,
,,,3.9100000000000001,0.024304986000061035,
,,,3.9125000000000001,0.023752054199576378,
,,,3.915,0.023006796836853027,
,,,3.9175,0.022141337394714355,
,,,3.9199999999999999,0.020314257591962814,
,,,3.9224999999999999,0.019496878609061241,
,,,3.9249999999999998,0.018823742866516113,
,,,3.9275000000000002,0.018366973847150803,
,,,3.9300000000000002,0.018054446205496788,
,,,3.9325000000000001,0.018198689445853233,
,,,3.9350000000000001,0.018439095467329025,
,,,3.9375,0.018751621246337891,
,,,3.9399999999999999,0.019136270508170128,
,,,3.9424999999999999,0.019112229347229004,
,,,3.9449999999999998,0.018847784027457237,
,,,3.9474999999999998,0.018366973847150803,
,,,3.9500000000000002,0.016900500282645226,
,,,3.9525000000000001,0.016107162460684776,
,,,3.9550000000000001,0.015409986488521099,
,,,3.9575,0.01492917537689209,
,,,3.96,0.014760891906917095,
,,,3.9624999999999999,0.015097459778189659,
,,,3.9649999999999999,0.015602311119437218,
,,,3.9674999999999998,0.016203325241804123,
,,,3.9700000000000002,0.017164945602416992,
,,,3.9725000000000001,0.017285149544477463,
,,,3.9750000000000001,0.01709282398223877,
,,,3.9775,0.016539892181754112,
,,,3.98,0.014592608436942101,
,,,3.9824999999999999,0.013366540893912315,
,,,3.9849999999999999,0.012092391960322857,
,,,3.9874999999999998,0.010842284187674522,
,,,3.9900000000000002,0.0088469190523028374,
,,,3.9925000000000002,0.0081497430801391602,
,,,3.9950000000000001,0.0076929731294512749,
,,,3.9975000000000001,0.0074525675736367702,
,,,4,0.0075006484985351562,75
,,,4.0025000000000004,0.0077650947496294975,
,,,4.0049999999999999,0.0081016626209020615,
,,,4.0075000000000003,0.0085584325715899467,
,,,4.0099999999999998,0.0096162166446447372,
,,,4.0125000000000002,0.010217229835689068,
,,,4.0149999999999997,0.010818243026733398,
,,,4.0175000000000001,0.01139521598815918,
,,,4.0199999999999996,0.012356838211417198,
,,,4.0225,0.012621283531188965,
,,,4.0250000000000004,0.012693405151367188,
,,,4.0274999999999999,0.012549161911010742,
,,,4.0300000000000002,0.011419257149100304,
,,,4.0324999999999998,0.010433594696223736,
,,,4.0350000000000001,0.0091834869235754013,
,,,4.0374999999999996,0.0076448917388916016,
,,,4.04,0.0038224458694458008,
,,,4.0425000000000004,0.0015866756439208984,
,,,4.0449999999999999,-0.0007692973013035953,
,,,4.0475000000000003,-0.0032454729080200195,
,,,4.0499999999999998,-0.0080776214599609375,
,,,4.0525000000000002,-0.010241270065307617,
,,,4.0549999999999997,-0.012092391960322857,
,,,4.0575000000000001,-0.013486742973327637,
,,,4.0599999999999996,-0.014688770286738873,
,,,4.0625,-0.014448365196585655,
,,,4.0650000000000004,-0.013703107833862305,
,,,4.0674999999999999,-0.012549161911010742,
,,,4.0700000000000003,-0.0096642971038818359,
,,,4.0724999999999998,-0.0083180274814367294,
,,,4.0750000000000002,-0.0072842836380004883,
,,,4.0774999999999997,-0.0068034729920327663,
,,,4.0800000000000001,-0.0082218647003173828,
,,,4.0824999999999996,-0.010409554466605186,
,,,4.085,-0.013655027374625206,
,,,4.0875000000000004,-0.017958283424377441,
,,,4.0899999999999999,-0.029161175712943077,
,,,4.0925000000000002,-0.035580001771450043,
,,,4.0949999999999998,-0.042070947587490082,
,,,4.0975000000000001,-0.04827340692281723,
,,,4.0999999999999996,-0.058033864945173264,
,,,4.1025,-0.06091872975230217,
,,,4.1050000000000004,-0.062096714973449707,
,,,4.1074999999999999,-0.061519742012023926,
,,,4.1100000000000003,-0.055149000138044357,
,,,4.1124999999999998,-0.049763917922973633,
,,,4.1150000000000002,-0.043297015130519867,
,,,4.1174999999999997,-0.036156974732875824,
,,,4.1200000000000001,-0.021323960274457932,
,,,4.1224999999999996,-0.014280080795288086,
,,,4.125,-0.0077650947496294975,
,,,4.1275000000000004,-0.0019232432823628187,
,,,4.1299999999999999,0.0076208515092730522,
,,,4.1325000000000003,0.011347135528922081,
,,,4.1349999999999998,0.014424324035644531,
,,,4.1375000000000002,0.016780298203229904,
,,,4.1399999999999997,0.019040107727050781,
,,,4.1425000000000001,0.018607378005981445,
,,,4.1449999999999996,0.017020702362060547,
,,,4.1475,0.014232000336050987,
,,,4.1500000000000004,0.0061062974855303764,
,,,4.1524999999999999,0.0018511216621845961,
,,,4.1550000000000002,-0.0013703107833862305,
,,,4.1574999999999998,-0.0025482974015176296,
,,,4.1600000000000001,0.0056976079940795898,
,,,4.1624999999999996,0.016900500282645226,
,,,4.165,0.033416353166103363,
,,,4.1675000000000004,0.081064701080322266,
,,,4.1699999999999999,0.1099373921751976,
,,,4.1725000000000003,0.13962745666503906,
,,,4.1749999999999998,0.16741833090782166,
,,,4.1775000000000002,0.20487348735332489,
,,,4.1799999999999997,0.20773431658744812,
,,,4.1825000000000001,0.19559383392333984,
,,,4.1849999999999996,0.16563932597637177,
,,,4.1875,0.11575520038604736,
,,,4.1900000000000004,-0.047095417976379395,
,,,4.1924999999999999,-0.15828292071819305,
,,,4.1950000000000003,-0.2855294942855835,
,,,4.1974999999999998,-0.56677979230880737,
,,,4.2000000000000002,-0.70664763450622559,
,,,4.2024999999999997,-0.83502411842346191,
,,,4.2050000000000001,-0.94339889287948608,
,,,4.2074999999999996,-1.070405125617981,
,,,4.21,-1.0785307884216309,
,,,4.2125000000000004,-1.0468453168869019,
,,,4.2149999999999999,-0.97693544626235962,
,,,4.2175000000000002,-0.74280464649200439,
,,,4.2199999999999998,-0.59469085931777954,
,,,4.2225000000000001,-0.43888410925865173,
,,,4.2249999999999996,-0.28550547361373901,
,,,4.2275,-0.020819108933210373,
,,,4.2300000000000004,0.078035593032836914,
,,,4.2324999999999999,0.15051782131195068,
,,,4.2350000000000003,0.19681990146636963,
,,,4.2374999999999998,0.21936993300914764,
,,,4.2400000000000002,0.21057109534740448,
,,,4.2424999999999997,0.18955966830253601,
,,,4.2450000000000001,0.16414880752563477,
,,,4.2474999999999996,0.11508207023143768,
,,,4.25,0.095945797860622406,
,,,4.2525000000000004,0.081473395228385925,
,,,4.2549999999999999,0.071304246783256531,
,,,4.2575000000000003,0.060077309608459473,
,,,4.2599999999999998,0.056663554161787033,
,,,4.2625000000000002,0.053442120552062988,
,,,4.2649999999999997,0.049812000244855881,
,,,4.2675000000000001,0.045484703034162521,
,,,4.2699999999999996,0.035075150430202484,
,,,4.2725,0.02952178381383419,
,,,4.2750000000000004,0.024208825081586838,
,,,4.2774999999999999,0.015121500007808208,
,,,4.2800000000000002,0.011515418998897076,
,,,4.2824999999999998,0.0085103511810302734,
,,,4.2850000000000001,0.0060101351700723171,
,,,4.2874999999999996,0.002067486522719264,
,,,4.29,0.00043272972106933594,
,,,4.2925000000000004,-0.00098566222004592419,
,,,4.2949999999999999,-0.002259810920804739,
,,,4.2975000000000003,-0.0043272972106933594,
,,,4.2999999999999998,-0.0051687164232134819,
,,,4.3025000000000002,-0.0059380135498940945,
,,,4.3049999999999997,-0.0066832704469561577,
,,,4.3075000000000001,-0.0084141893312335014,
,,,4.3099999999999996,-0.0094719734042882919,
,,,4.3125,-0.010698040947318077,
,,,4.3150000000000004,-0.012068351730704308,
,,,4.3174999999999999,-0.015121500007808208,
,,,4.3200000000000003,-0.016732215881347656,
,,,4.3224999999999998,-0.018415054306387901,
,,,4.3250000000000002,-0.020145973190665245,
,,,4.3274999999999997,-0.024040540680289268,
,,,4.3300000000000001,-0.026348432525992393,
,,,4.3324999999999996,-0.028944810852408409,
,,,4.335,-0.031877756118774414,
,,,4.3375000000000004,-0.038801431655883789,
,,,4.3399999999999999,-0.042647920548915863,
,,,4.3425000000000002,-0.046662688255310059,
,,,4.3449999999999998,-0.050701498985290527,
,,,4.3475000000000001,-0.058322351425886154,
,,,4.3499999999999996,-0.061663985252380371,
,,,4.3525,-0.064596936106681824,
,,,4.3550000000000004,-0.067097149789333344,
,,,4.3574999999999999,-0.070967674255371094,
,,,4.3600000000000003,-0.072578392922878265,
,,,4.3624999999999998,-0.074189111590385437,
,,,4.3650000000000002,-0.075992152094841003,
,,,4.3674999999999997,-0.081016622483730316,
,,,4.3700000000000001,-0.084526538848876953,
,,,4.3724999999999996,-0.088829800486564636,
,,,4.375,-0.093950435519218445,
,,,4.3775000000000004,-0.10647555440664291,
,,,4.3799999999999999,-0.11366367340087891,
,,,4.3825000000000003,-0.12128452956676483,
,,,4.3849999999999998,-0.12916982173919678,
,,,4.3875000000000002,-0.14522890746593475,
,,,4.3899999999999997,-0.1531141996383667,
,,,4.3925000000000001,-0.16078314185142517,
,,,4.3949999999999996,-0.16818761825561523,
,,,4.3975,-0.1822032630443573,
,,,4.4000000000000004,-0.18886248767375946,
,,,4.4024999999999999,-0.19537746906280518,
,,,4.4050000000000002,-0.20184437930583954,
,,,4.4074999999999998,-0.21489839255809784,
,,,4.4100000000000001,-0.22153358161449432,
,,,4.4124999999999996,-0.22819280624389648,
,,,4.415,-0.23482799530029297,
,,,4.4175000000000004,-0.24744927883148193,
,,,4.4199999999999999,-0.25312286615371704,
,,,4.4225000000000003,-0.25819540023803711,
,,,4.4249999999999998,-0.26252269744873047,
,,,4.4275000000000002,-0.26855689287185669,
,,,4.4299999999999997,-0.27021569013595581,
,,,4.4325000000000001,-0.27098497748374939,
,,,4.4349999999999996,-0.27086478471755981,
,,,4.4375,-0.26814818382263184,
,,,4.4400000000000004,-0.26557585597038269,
,,,4.4424999999999999,-0.26213806867599487,
,,,4.4450000000000003,-0.25781077146530151,
,,,4.4474999999999998,-0.24591068923473358,
,,,4.4500000000000002,-0.23814558982849121,
,,,4.4524999999999997,-0.22903423011302948,
,,,4.4550000000000001,-0.21852850914001465,
,,,4.4574999999999996,-0.19362251460552216,
,,,4.46,-0.17953476309776306,
,,,4.4625000000000004,-0.16470174491405487,
,,,4.4649999999999999,-0.14943599700927734,
,,,4.4675000000000002,-0.11902471631765366,
,,,4.4699999999999998,-0.10450422763824463,
,,,4.4725000000000001,-0.090777084231376648,
,,,4.4749999999999996,-0.077939435839653015,
,,,4.4775,-0.055269204080104828,
,,,4.4800000000000004,-0.045292377471923828,
,,,4.4824999999999999,-0.036084853112697601,
,,,4.4850000000000003,-0.027502378448843956,
,,,4.4874999999999998,-0.011707743629813194,
,,,4.4900000000000002,-0.00430325698107481,
,,,4.4924999999999997,0.0028127431869506836,
,,,4.4950000000000001,0.0096642971038818359,
,,,4.4974999999999996,0.022141337394714355,
,,,4.5,0.027598541229963303,
,,,4.5025000000000004,0.032382607460021973,
,,,4.5049999999999999,0.036421418190002441,
,,,4.5075000000000003,0.04228731244802475,
,,,4.5099999999999998,0.044210553169250488,
,,,4.5125000000000002,0.045652985572814941,
,,,4.5149999999999997,0.046782892197370529,
,,,4.5175000000000001,0.048778258264064789,
,,,4.5199999999999996,0.049932204186916351,
,,,4.5225,0.051302514970302582,
,,,4.5250000000000004,0.052913229912519455,
,,,4.5274999999999999,0.05659143254160881,
,,,4.5300000000000002,0.058466594666242599,
,,,4.5324999999999998,0.060269635170698166,
,,,4.5350000000000001,0.061856310814619064,
,,,4.5374999999999996,0.064164206385612488,
,,,4.54,0.064861379563808441,
,,,4.5425000000000004,0.065221987664699554,
,,,4.5449999999999999,0.06531815230846405,
,,,4.5475000000000003,0.064861379563808441,
,,,4.5499999999999998,0.064452692866325378,
,,,4.5525000000000002,0.06394784152507782,
,,,4.5549999999999997,0.063442990183830261,
,,,4.5575000000000001,0.062529444694519043,
,,,4.5599999999999996,0.062144797295331955,
,,,4.5625,0.061808228492736816,
,,,4.5650000000000004,0.061543785035610199,
,,,4.5674999999999999,0.061062972992658615,
,,,4.5700000000000003,0.060822568833827972,
,,,4.5724999999999998,0.060558121651411057,
,,,4.5750000000000002,0.060269635170698166,
,,,4.5774999999999997,0.059572458267211914,
,,,4.5800000000000001,0.059163771569728851,
,,,4.5824999999999996,0.058682959526777267,
,,,4.585,0.058154068887233734,
,,,4.5875000000000004,0.056928001344203949,
,,,4.5899999999999999,0.056206785142421722,
,,,4.5925000000000002,0.055365364998579025,
,,,4.5949999999999998,0.054427783936262131,
,,,4.5975000000000001,0.05214393138885498,
,,,4.5999999999999996,0.05077362060546875,
,,,4.6025,0.049259066581726074,
,,,4.6050000000000004,0.047624312341213226,
,,,4.6074999999999999,0.044138431549072266,
,,,4.6100000000000003,0.042359434068202972,
,,,4.6124999999999998,0.040652554482221603,
,,,4.6150000000000002,0.03904183954000473,
,,,4.6174999999999997,0.036181014031171799,
,,,4.6200000000000001,0.034882824867963791,
,,,4.6224999999999996,0.033632718026638031,
,,,4.625,0.032334528863430023,
,,,4.6275000000000004,0.029449662193655968,
,,,4.6299999999999999,0.027838945388793945,
,,,4.6325000000000003,0.026132067665457726,
,,,4.6349999999999998,0.02444922924041748,
,,,4.6375000000000002,0.021540325134992599,
,,,4.6399999999999997,0.020554661750793457,
,,,4.6425000000000001,0.019977688789367676,
,,,4.6449999999999996,0.019881527870893478,
,,,4.6475,0.021059513092041016,
,,,4.6500000000000004,0.022165378555655479,
,,,4.6524999999999999,0.023439526557922363,
,,,4.6550000000000002,0.024737715721130371,
,,,4.6574999999999998,0.026757121086120605,
,,,4.6600000000000001,0.027261972427368164,
,,,4.6624999999999996,0.027310054749250412,
,,,4.665,0.026925405487418175,
,,,4.6675000000000004,0.025122364982962608,
,,,4.6699999999999999,0.023944377899169922,
,,,4.6725000000000003,0.022790431976318359,
,,,4.6749999999999998,0.02182881161570549,
,,,4.6775000000000002,0.020819108933210373,
,,,4.6799999999999997,0.020867189392447472,
,,,4.6825000000000001,0.021227797493338585,
,,,4.6849999999999996,0.021780729293823242,
,,,4.6875,0.022958716377615929,
,,,4.6900000000000004,0.023295283317565918,
,,,4.6924999999999999,0.023367404937744141,
,,,4.6950000000000003,0.02307891845703125,
,,,4.6974999999999998,0.021660527214407921,
,,,4.7000000000000002,0.020674865692853928,
,,,4.7024999999999997,0.019689202308654785,
,,,4.7050000000000001,0.018799703568220139,
,,,4.7074999999999996,0.017886161804199219,
,,,4.71,0.017958283424377441,
,,,4.7125000000000004,0.018391013145446777,
,,,4.7149999999999999,0.019184350967407227,
,,,4.7175000000000002,0.021299919113516808,
,,,4.7199999999999998,0.022429823875427246,
,,,4.7225000000000001,0.023415487259626389,
,,,4.7249999999999996,0.02416074275970459,
,,,4.7275,0.024689635261893272,
,,,4.7300000000000004,0.024425189942121506,
,,,4.7324999999999999,0.023872256278991699,
,,,4.7350000000000003,0.023102959617972374,
,,,4.7374999999999998,0.021227797493338585,
,,,4.7400000000000002,0.020314257591962814,
,,,4.7424999999999997,0.019472837448120117,
,,,4.7450000000000001,0.018799703568220139,
,,,4.7474999999999996,0.017982324585318565,
,,,4.75,0.017814040184020996,
,,,4.7525000000000004,0.017790000885725021,
,,,4.7549999999999999,0.017886161804199219,
,,,4.7575000000000003,0.018222730606794357,
,,,4.7599999999999998,0.018415054306387901,
,,,4.7625000000000002,0.018559297546744347,
,,,4.7649999999999997,0.018631419166922569,
,,,4.7675000000000001,0.018535256385803223,
,,,4.7699999999999996,0.018366973847150803,
,,,4.7725,0.018102526664733887,
,,,4.7750000000000004,0.017765959724783897,
,,,4.7774999999999999,0.016924541443586349,
,,,4.7800000000000002,0.016491811722517014,
,,,4.7824999999999998,0.016035040840506554,
,,,4.7850000000000001,0.015602311119437218,
,,,4.7874999999999996,0.01490513514727354,
,,,4.79,0.014688770286738873,
,,,4.7925000000000004,0.014640688896179199,
,,,4.7949999999999999,0.014736851677298546,
,,,4.7975000000000003,0.01538594625890255,
,,,4.7999999999999998,0.015890797600150108,
,,,4.8025000000000002,0.016395648941397667,
,,,4.8049999999999997,0.016876459121704102,
,,,4.8075000000000001,0.017405351623892784,
,,,4.8099999999999996,0.017333230003714561,
,,,4.8125,0.017020702362060547,
,,,4.8150000000000004,0.01646777056157589,
,,,4.8174999999999999,0.014808973297476768,
,,,4.8200000000000003,0.01384735107421875,
,,,4.8224999999999998,0.012933811172842979,
,,,4.8250000000000002,0.01216451358050108,
,,,4.8274999999999997,0.011250972747802734,
,,,4.8300000000000001,0.011226932518184185,
,,,4.8324999999999996,0.011515418998897076,
,,,4.835,0.012092391960322857,
,,,4.8375000000000004,0.013823310844600201,
,,,4.8399999999999999,0.014808973297476768,
,,,4.8425000000000002,0.015698473900556564,
,,,4.8449999999999998,0.016371607780456543,
,,,4.8475000000000001,0.016732215881347656,
,,,4.8499999999999996,0.016323527321219444,
,,,4.8525,0.015554229728877544,
,,,4.8550000000000004,0.014496445655822754,
,,,4.8574999999999999,0.011996230110526085,
,,,4.8600000000000003,0.010818243026733398,
,,,4.8624999999999998,0.0098806619644165039,
,,,4.8650000000000002,0.0092315673828125,
,,,4.8674999999999997,0.0088950004428625107,
,,,4.8700000000000001,0.009135405533015728,
,,,4.8724999999999996,0.0095200538635253906,
,,,4.875,0.0098806619644165039,
,,,4.8775000000000004,0.0099287433549761772,
,,,4.8799999999999999,0.0093277301639318466,
,,,4.8825000000000003,0.0082218647003173828,
,,,4.8849999999999998,0.0065390272065997124,
,,,4.8875000000000002,0.0016828378429636359,
,,,4.8899999999999997,-0.0012501081218943,
,,,4.8925000000000001,-0.00430325698107481,
,,,4.8949999999999996,-0.0072842836380004883,
,,,4.8975,-0.01216451358050108,
,,,4.9000000000000004,-0.013775229454040527,
,,,4.9024999999999999,-0.014664730057120323,
,,,4.9050000000000002,-0.014833013527095318,
,,,4.9074999999999998,-0.013078054413199425,
,,,4.9100000000000001,-0.01139521598815918,
,,,4.9124999999999996,-0.0094238920137286186,
,,,4.915,-0.0073804459534585476,
,,,4.9175000000000004,-0.0043272972106933594,
,,,4.9199999999999999,-0.0038945674896240234,
,,,4.9225000000000003,-0.004519621841609478,
,,,4.9249999999999998,-0.0063947839662432671,
,,,4.9275000000000002,-0.014256040565669537,
,,,4.9299999999999997,-0.020073851570487022,
,,,4.9325000000000001,-0.026853283867239952,
,,,4.9349999999999996,-0.034209690988063812,
,,,4.9375,-0.048802297562360764,
,,,4.9400000000000004,-0.055004756897687912,
,,,4.9424999999999999,-0.059884987771511078,
,,,4.9450000000000003,-0.063058339059352875,
,,,4.9474999999999998,-0.063467025756835938,
,,,4.9500000000000002,-0.060678325593471527,
,,,4.9524999999999997,-0.056110620498657227,
,,,4.9550000000000001,-0.050100486725568771,
,,,4.9574999999999996,-0.035363636910915375,
,,,4.96,-0.027574500069022179,
,,,4.9625000000000004,-0.020049810409545898,
,,,4.9649999999999999,-0.013102094642817974,
,,,4.9675000000000002,-0.0016107162227854133,
,,,4.9699999999999998,0.0028848648071289062,
,,,4.9725000000000001,0.0066832704469561577,
,,,4.9749999999999996,0.0099047031253576279,
,,,4.9775,0.015121500007808208,
,,,4.9800000000000004,0.017140906304121017,
,,,4.9824999999999999,0.018631419166922569,
,,,4.9850000000000003,0.019400715827941895,
,,,4.9874999999999998,0.018078487366437912,
,,,4.9900000000000002,0.01584271714091301,
,,,4.9924999999999997,0.012813608162105083,
,,,4.9950000000000001,0.009447932243347168,
,,,4.9974999999999996,0.0048081083223223686,
,,,5,0.0055774054490029812,71.570571899414062
,,,5.0025000000000004,0.0097845001146197319,
,,,5.0049999999999999,0.018342932686209679,
,,,5.0075000000000003,0.050340890884399414,
,,,5.0099999999999998,0.073395773768424988,
,,,5.0125000000000002,0.099912486970424652,
,,,5.0149999999999997,0.12811204791069031,
,,,5.0175000000000001,0.17967900633811951,
,,,5.0199999999999996,0.19698819518089294,
,,,5.0225,0.20429651439189911,
,,,5.0250000000000004,0.1983344554901123,
,,,5.0274999999999999,0.13549248874187469,
,,,5.0300000000000002,0.074838206171989441,
,,,5.0324999999999998,-0.0060822567902505398,
,,,5.0350000000000001,-0.10628323256969452,
,,,5.0374999999999996,-0.35253047943115234,
,,,5.04,-0.48879227042198181,
,,,5.0425000000000004,-0.62495791912078857,
,,,5.0449999999999999,-0.75319015979766846,
,,,5.0475000000000003,-0.95361614227294922,
,,,5.0499999999999998,-1.0113375186920166,
,,,5.0525000000000002,-1.0335990190505981,
,,,5.0549999999999997,-1.0179486274719238,
,,,5.0575000000000001,-0.8769989013671875,
,,,5.0599999999999996,-0.76066672801971436,
,,,5.0625,-0.62365972995758057,
,,,5.0650000000000004,-0.47530552744865417,
,,,5.0674999999999999,-0.18299660086631775,
,,,5.0700000000000003,-0.056182742118835449,
,,,5.0724999999999998,0.049283109605312347,
,,,5.0750000000000002,0.13005933165550232,
,,,5.0774999999999997,0.21638891100883484,
,,,5.0800000000000001,0.22672633826732635,
,,,5.0824999999999996,0.22078832983970642,
,,,5.085,0.20367145538330078,
,,,5.0875000000000004,0.15489320456981659,
,,,5.0899999999999999,0.13080458343029022,
,,,5.0925000000000002,0.11010567843914032,
,,,5.0949999999999998,0.093782149255275726,
,,,5.0975000000000001,0.073636174201965332,
,,,5.0999999999999996,0.068082809448242188,
,,,5.1025,0.064068041741847992,
,,,5.1050000000000004,0.060606203973293304,
,,,5.1074999999999999,0.052744947373867035,
,,,5.1100000000000003,0.047864716500043869,
,,,5.1124999999999998,0.042479634284973145,
,,,5.1150000000000002,0.036878190934658051,
,,,5.1174999999999997,0.026252269744873047,
,,,5.1200000000000001,0.02170860767364502,
,,,5.1224999999999996,0.017814040184020996,
,,,5.125,0.014544527046382427,
,,,5.1275000000000004,0.0095440950244665146,
,,,5.1299999999999999,0.0075727701187133789,
,,,5.1325000000000003,0.0058418512344360352,
,,,5.1349999999999998,0.0042311353608965874,
,,,5.1375000000000002,0.0012501081218943,
,,,5.1399999999999997,-0.00019232432532589883,
,,,5.1425000000000001,-0.0016587972640991211,
,,,5.1449999999999996,-0.0032214324455708265,
,,,5.1475,-0.006707310676574707,
,,,5.1500000000000004,-0.0086786355823278427,
,,,5.1524999999999999,-0.010818243026733398,
,,,5.1550000000000002,-0.013102094642817974,
,,,5.1574999999999998,-0.017814040184020996,
,,,5.1600000000000001,-0.020170014351606369,
,,,5.1624999999999996,-0.022429823875427246,
,,,5.165,-0.024641554802656174,
,,,5.1675000000000004,-0.028824608772993088,
,,,5.1699999999999999,-0.030868053436279297,
,,,5.1725000000000003,-0.032959580421447754,
,,,5.1749999999999998,-0.035099189728498459,
,,,5.1775000000000002,-0.039714973419904709,
,,,5.1799999999999997,-0.042191147804260254,
,,,5.1825000000000001,-0.044763486832380295,
,,,5.1849999999999996,-0.047431986778974533,
,,,5.1875,-0.052913229912519455,
,,,5.1900000000000004,-0.055701933801174164,
,,,5.1924999999999999,-0.058514676988124847,
,,,5.1950000000000003,-0.061327420175075531,
,,,5.1974999999999998,-0.067025028169155121,
,,,5.2000000000000002,-0.0699339359998703,
,,,5.2024999999999997,-0.072963044047355652,
,,,5.2050000000000001,-0.076088309288024902,
,,,5.2074999999999996,-0.082843706011772156,
,,,5.21,-0.086497865617275238,
,,,5.2125000000000004,-0.090416476130485535,
,,,5.2149999999999999,-0.094623565673828125,
,,,5.2175000000000002,-0.10409554094076157,
,,,5.2199999999999998,-0.10945658385753632,
,,,5.2225000000000001,-0.1153465136885643,
,,,5.2249999999999996,-0.12171725928783417,
,,,5.2275,-0.13594925403594971,
,,,5.2300000000000004,-0.1436903178691864,
,,,5.2324999999999999,-0.15169581770896912,
,,,5.2350000000000003,-0.15989363193511963,
,,,5.2374999999999998,-0.17628929018974304,
,,,5.2400000000000002,-0.18431882560253143,
,,,5.2424999999999997,-0.1921800822019577,
,,,5.2450000000000001,-0.19987305998802185,
,,,5.2474999999999996,-0.21473011374473572,
,,,5.25,-0.22199034690856934,
,,,5.2525000000000004,-0.22915443778038025,
,,,5.2549999999999999,-0.23622235655784607,
,,,5.2575000000000003,-0.24994949996471405,
,,,5.2599999999999998,-0.25646448135375977,
,,,5.2625000000000002,-0.26259481906890869,
,,,5.2649999999999997,-0.26824435591697693,
,,,5.2675000000000001,-0.27762016654014587,
,,,5.2699999999999996,-0.28113007545471191,
,,,5.2725,-0.2837505042552948,
,,,5.2750000000000004,-0.28538525104522705,
,,,5.2774999999999999,-0.2855294942855835,
,,,5.2800000000000002,-0.28399091958999634,
,,,5.2824999999999998,-0.28127431869506836,
,,,5.2850000000000001,-0.27740380167961121,
,,,5.2874999999999996,-0.26596051454544067,
,,,5.29,-0.25831562280654907,
,,,5.2925000000000004,-0.24934849143028259,
,,,5.2949999999999999,-0.23908317089080811,
,,,5.2975000000000003,-0.21501860022544861,
,,,5.2999999999999998,-0.20148377120494843,
,,,5.3025000000000002,-0.18722772598266602,
,,,5.3049999999999997,-0.17246684432029724,
,,,5.3075000000000001,-0.14251232147216797,
,,,5.3099999999999996,-0.12777547538280487,
,,,5.3125,-0.11347135156393051,
,,,5.3150000000000004,-0.099696122109889984,
,,,5.3174999999999999,-0.074092946946620941,
,,,5.3200000000000003,-0.062313079833984375,
,,,5.3224999999999998,-0.051230393350124359,
,,,5.3250000000000002,-0.040820837020874023,
,,,5.3274999999999997,-0.021900933235883713,
,,,5.3300000000000001,-0.013366540893912315,
,,,5.3324999999999996,-0.0054331622086465359,
,,,5.335,0.0018992027034983039,
,,,5.3375000000000004,0.014640688896179199,
,,,5.3399999999999999,0.020025771111249924,
,,,5.3425000000000002,0.024737715721130371,
,,,5.3449999999999998,0.028800567612051964,
,,,5.3475000000000001,0.034954946488142014,
,,,5.3499999999999996,0.037166677415370941,
,,,5.3525,0.038873553276062012,
,,,5.3550000000000004,0.04017174243927002,
,,,5.3574999999999999,0.041902661323547363,
,,,5.3600000000000003,0.042527716606855392,
,,,5.3624999999999998,0.043128728866577148,
,,,5.3650000000000002,0.043729744851589203,
,,,5.3674999999999997,0.045196216553449631,
,,,5.3700000000000001,0.046133797615766525,
,,,5.3724999999999996,0.047215621918439865,
,,,5.375,0.04844168946146965,
,,,5.3775000000000004,0.051062107086181641,
,,,5.3799999999999999,0.052360296249389648,
,,,5.3825000000000003,0.053562324494123459,
,,,5.3849999999999998,0.054596066474914551,
,,,5.3875000000000002,0.055990420281887054,
,,,5.3899999999999997,0.056326985359191895,
,,,5.3925000000000001,0.05647122859954834,
,,,5.3949999999999996,0.05642315000295639,
,,,5.3975,0.0561346635222435,
,,,5.4000000000000004,0.055990420281887054,
,,,5.4024999999999999,0.055966377258300781,
,,,5.4050000000000002,0.056062541902065277,
,,,5.4074999999999998,0.056663554161787033,
,,,5.4100000000000001,0.057168405503034592,
,,,5.4124999999999996,0.057769417762756348,
,,,5.415,0.058394473046064377,
,,,5.4175000000000004,0.059404175728559494,
,,,5.4199999999999999,0.05966862291097641,
,,,5.4225000000000003,0.05966862291097641,
,,,5.4249999999999998,0.059332054108381271,
,,,5.4275000000000002,0.05767325684428215,
,,,5.4299999999999997,0.056375067681074142,
,,,5.4325000000000001,0.054836474359035492,
,,,5.4349999999999996,0.053129594773054123,
,,,5.4375,0.049571596086025238,
,,,5.4400000000000004,0.047840677201747894,
,,,5.4424999999999999,0.046229958534240723,
,,,5.4450000000000003,0.04473944753408432,
,,,5.4474999999999998,0.042070947587490082,
,,,5.4500000000000002,0.040868919342756271,
,,,5.4524999999999997,0.039739012718200684,
,,,5.4550000000000001,0.038633149117231369,
,,,5.4574999999999996,0.036469500511884689,
,,,5.46,0.035411715507507324,
,,,5.4625000000000004,0.03430585190653801,
,,,5.4649999999999999,0.033199988305568695,
,,,5.4675000000000002,0.030964216217398643,
,,,5.4699999999999998,0.029810270294547081,
,,,5.4725000000000001,0.028680365532636642,
,,,5.4749999999999996,0.027574500069022179,
,,,5.4775,0.025434892624616623,
,,,5.4800000000000004,0.024473270401358604,
,,,5.4824999999999999,0.023559730499982834,
,,,5.4850000000000003,0.022718310356140137,
,,,5.4874999999999998,0.021323960274457932,
,,,5.4900000000000002,0.020771026611328125,
,,,5.4924999999999997,0.020314257591962814,
,,,5.4950000000000001,0.019977688789367676,
,,,5.4974999999999996,0.019617080688476562,
,,,5.5,0.019593041390180588,
,,,5.5025000000000004,0.019641121849417686,
,,,5.5049999999999999,0.019737284630537033,
,,,5.5075000000000003,0.020049810409545898,
,,,5.5099999999999998,0.020194053649902344,
,,,5.5125000000000002,0.020338296890258789,
,,,5.5149999999999997,0.020434459671378136,
,,,5.5175000000000001,0.020434459671378136,
,,,5.5199999999999996,0.020314257591962814,
,,,5.5225,0.020121932029724121,
,,,5.5250000000000004,0.019881527870893478,
,,,5.5274999999999999,0.01937667652964592,
,,,5.5300000000000002,0.019184350967407227,
,,,5.5324999999999998,0.019088190048933029,
,,,5.5350000000000001,0.019112229347229004,
,,,5.5374999999999996,0.019472837448120117,
,,,5.54,0.019809406250715256,
,,,5.5425000000000004,0.020145973190665245,
,,,5.5449999999999999,0.02045850083231926,
,,,5.5475000000000003,0.020819108933210373,
,,,5.5499999999999998,0.020867189392447472,
,,,5.5525000000000002,0.020795067772269249,
,,,5.5549999999999997,0.020674865692853928,
,,,5.5575000000000001,0.020410418510437012,
,,,5.5599999999999996,0.020362338051199913,
,,,5.5625,0.020386379212141037,
,,,5.5650000000000004,0.020482540130615234,
,,,5.5674999999999999,0.020891230553388596,
,,,5.5700000000000003,0.021155675873160362,
,,,5.5724999999999998,0.021396081894636154,
,,,5.5750000000000002,0.021636486053466797,
,,,5.5774999999999997,0.022045176476240158,
,,,5.5800000000000001,0.022189419716596603,
,,,5.5824999999999996,0.022261541336774826,
,,,5.585,0.022309621796011925,
,,,5.5875000000000004,0.022189419716596603,
,,,5.5899999999999999,0.022045176476240158,
,,,5.5925000000000002,0.021804770454764366,
,,,5.5949999999999998,0.021468203514814377,
,,,5.5975000000000001,0.020506581291556358,
,,,5.5999999999999996,0.01983344554901123,
,,,5.6025,0.019064148887991905,
,,,5.6050000000000004,0.018150608986616135,
,,,5.6074999999999999,0.016155242919921875,
,,,5.6100000000000003,0.015145540237426758,
,,,5.6124999999999998,0.014183918945491314,
,,,5.6150000000000002,0.013342499732971191,
,,,5.6174999999999997,0.012116432189941406,
,,,5.6200000000000001,0.011803905479609966,
,,,5.6224999999999996,0.011659662239253521,
,,,5.625,0.011659662239253521,
,,,5.6275000000000004,0.011948148719966412,
,,,5.6299999999999999,0.01214047335088253,
,,,5.6325000000000003,0.012308756820857525,
,,,5.6349999999999998,0.012404918670654297,
,,,5.6375000000000002,0.012308756820857525,
,,,5.6399999999999997,0.012092391960322857,
,,,5.6425000000000001,0.011779865249991417,
,,,5.6449999999999996,0.011347135528922081,
,,,5.6475,0.01031339168548584,
,,,5.6500000000000004,0.0097604598850011826,
,,,5.6524999999999999,0.0092796487733721733,
,,,5.6550000000000002,0.0088709592819213867,
,,,5.6574999999999998,0.0084141893312335014,
,,,5.6600000000000001,0.0084141893312335014,
,,,5.6624999999999996,0.0085103511810302734,
,,,5.665,0.0087026758119463921,
,,,5.6675000000000004,0.0091834869235754013,
,,,5.6699999999999999,0.0093998517841100693,
,,,5.6725000000000003,0.0095200538635253906,
,,,5.6749999999999998,0.0095200538635253906,
,,,5.6775000000000002,0.0091594457626342773,
,,,5.6799999999999997,0.0087747974321246147,
,,,5.6825000000000001,0.0082459058612585068,
,,,5.6849999999999996,0.0076448917388916016,
,,,5.6875,0.0062986216507852077,
,,,5.6900000000000004,0.0056735677644610405,
,,,5.6924999999999999,0.0051687164232134819,
,,,5.6950000000000003,0.004784067627042532,
,,,5.6974999999999998,0.0046638650819659233,
,,,5.7000000000000002,0.0049283108673989773,
,,,5.7024999999999997,0.0053610405884683132,
,,,5.7050000000000001,0.0059860944747924805,
,,,5.7074999999999996,0.0074285268783569336,
,,,5.71,0.0081497430801391602,
,,,5.7125000000000004,0.0087988376617431641,
,,,5.7149999999999999,0.0093277301639318466,
,,,5.7175000000000002,0.0098325815051794052,
,,,5.7199999999999998,0.0097845001146197319,
,,,5.7225000000000001,0.0095440950244665146,
,,,5.7249999999999996,0.0091594457626342773,
,,,5.7275,0.0080295410007238388,
,,,5.7300000000000004,0.0074285268783569336,
,,,5.7324999999999999,0.006923675537109375,
,,,5.7350000000000003,0.0065390272065997124,
,,,5.7374999999999998,0.0063947839662432671,
,,,5.7400000000000002,0.0066832704469561577,
,,,5.7424999999999997,0.0071640810929238796,
,,,5.7450000000000001,0.0078131761401891708,
,,,5.7474999999999996,0.0093998517841100693,
,,,5.75,0.010169148445129395,
,,,5.7525000000000004,0.010866324417293072,
,,,5.7549999999999999,0.01139521598815918,
,,,5.7575000000000003,0.011755824089050293,
,,,5.7599999999999998,0.011467337608337402,
,,,5.7625000000000002,0.010842284187674522,
,,,5.7649999999999997,0.0098085403442382812,
,,,5.7675000000000001,0.006659229751676321,
,,,5.7699999999999996,0.0045917434617877007,
,,,5.7725,0.0023319325409829617,
,,,5.7750000000000004,-7.2121620178222656e-05,
,,,5.7774999999999999,-0.004832148551940918,
,,,5.7800000000000002,-0.0069717569276690483,
,,,5.7824999999999998,-0.008822878822684288,
,,,5.7850000000000001,-0.01028935145586729,
,,,5.7874999999999996,-0.01185198687016964,
,,,5.79,-0.011948148719966412,
,,,5.7925000000000004,-0.011563500389456749,
,,,5.7949999999999999,-0.010794202797114849,
,,,5.7975000000000003,-0.0084382295608520508,
,,,5.7999999999999998,-0.007140040397644043,
,,,5.8025000000000002,-0.0059620542451739311,
,,,5.8049999999999997,-0.0051206350326538086,
,,,5.8075000000000001,-0.0050725541077554226,
,,,5.8099999999999996,-0.0061784191057085991,
,,,5.8125,-0.0081737842410802841,
,,,5.8150000000000004,-0.011130770668387413,
,,,5.8174999999999999,-0.019713243469595909,
,,,5.8200000000000003,-0.025122364982962608,
,,,5.8224999999999998,-0.030988257378339767,
,,,5.8250000000000002,-0.037046473473310471,
,,,5.8274999999999997,-0.048345528542995453,
,,,5.8300000000000001,-0.05288919061422348,
,,,5.8324999999999996,-0.056206785142421722,
,,,5.835,-0.058081947267055511,
,,,5.8375000000000004,-0.056879919022321701,
,,,5.8399999999999999,-0.053802728652954102,
,,,5.8425000000000002,-0.049283109605312347,
,,,5.8449999999999998,-0.04353741928935051,
,,,5.8475000000000001,-0.029786229133605957,
,,,5.8499999999999996,-0.022429823875427246,
,,,5.8525,-0.015169581398367882,
,,,5.8550000000000004,-0.0082218647003173828,
,,,5.8574999999999999,0.0042551755905151367,
,,,5.8600000000000003,0.0096402568742632866,
,,,5.8624999999999998,0.014424324035644531,
,,,5.8650000000000002,0.018583338707685471,
,,,5.8674999999999997,0.024713676422834396,
,,,5.8700000000000001,0.02644459530711174,
,,,5.8724999999999996,0.027093689888715744,
,,,5.875,0.026540756225585938,
,,,5.8775000000000004,0.02182881161570549,
,,,5.8799999999999999,0.018126567825675011,
,,,5.8825000000000003,0.014207959175109863,
,,,5.8849999999999998,0.010866324417293072,
,,,5.8875000000000002,0.0100008649751544,
,,,5.8899999999999997,0.01461664866656065,
,,,5.8925000000000001,0.023872256278991699,
,,,5.8949999999999996,0.038344662636518478,
,,,5.8975,0.082675419747829437,
,,,5.9000000000000004,0.11094709485769272,
,,,5.9024999999999999,0.14111797511577606,
,,,5.9050000000000002,0.17088016867637634,
,,,5.9074999999999998,0.21730244159698486,
,,,5.9100000000000001,0.22747159004211426,
,,,5.9124999999999996,0.22449056804180145,
,,,5.915,0.20537833869457245,
,,,5.9175000000000004,0.10969698429107666,
,,,5.9199999999999999,0.030892094597220421,
,,,5.9225000000000003,-0.068106852471828461,
,,,5.9249999999999998,-0.18506407737731934,
,,,5.9275000000000002,-0.45621734857559204,
,,,5.9299999999999997,-0.59829694032669067,
,,,5.9325000000000001,-0.73465490341186523,
,,,5.9349999999999996,-0.85704529285430908,
,,,5.9375,-1.0280697345733643,
,,,5.9400000000000004,-1.0638900995254517,
,,,5.9424999999999999,-1.0613658428192139,
,,,5.9450000000000003,-0.94183623790740967,
,,,5.9474999999999998,-0.83221137523651123,
,,,5.9500000000000002,-0.69852197170257568,
,,,5.9524999999999997,-0.54983121156692505,
,,,5.9550000000000001,-0.39597174525260925,
,,,5.9574999999999996,-0.110129714012146,
,,,5.96,0.0066832704469561577,
,,,5.9625000000000004,0.099575921893119812,
