Data Set 1:Time(s),Data Set 1:EKG(mV)
0,0.029834311455488205
0.0050000000000000001,0.02632439136505127
0.01,0.023175081238150597
0.014999999999999999,-0.013270378112792969
0.02,-0.034882824867963791
0.025000000000000001,-0.062144797295331955
0.029999999999999999,-0.069693528115749359
0.035000000000000003,-0.059115689247846603
0.040000000000000001,-0.039570730179548264
0.044999999999999998,-0.0031973919831216335
0.050000000000000003,0.017237067222595215
0.055,0.030579566955566406
0.059999999999999998,0.025098323822021484
0.065000000000000002,-0.00096162164118140936
0.070000000000000007,-0.022958716377615929
0.074999999999999997,-0.043200850486755371
0.080000000000000002,-0.03550788015127182
0.085000000000000006,0.022646188735961914
0.089999999999999997,0.092147395014762878
0.095000000000000001,0.22266349196434021
0.10000000000000001,0.30644476413726807
0.105,0.38426399230957031
0.11,0.3805377185344696
0.115,0.264445960521698
0.12,0.11229336261749268
0.125,-0.19326190650463104
0.13,-0.40578028559684753
0.13500000000000001,-0.64380568265914917
0.14000000000000001,-0.70119047164916992
0.14499999999999999,-0.6054610013961792
0.14999999999999999,-0.44270655512809753
0.155,-0.13873796164989471
0.16,0.046494405716657639
0.16500000000000001,0.23403465747833252
0.17000000000000001,0.29098671674728394
0.17499999999999999,0.29932877421379089
0.17999999999999999,0.27567288279533386
0.185,0.22586087882518768
0.19,0.1920839250087738
0.19500000000000001,0.14748871326446533
0.20000000000000001,0.12409727275371552
0.20499999999999999,0.10097026824951172
0.20999999999999999,0.093229219317436218
0.215,0.08947889506816864
0.22,0.089599095284938812
0.22500000000000001,0.090488597750663757
0.23000000000000001,0.090320311486721039
0.23499999999999999,0.086882516741752625
0.23999999999999999,0.081353187561035156
0.245,0.067770287394523621
0.25,0.056615471839904785
0.255,0.04137377068400383
0.26000000000000001,0.035003028810024261
0.26500000000000001,0.032767258584499359
0.27000000000000002,0.034281812608242035
0.27500000000000002,0.033873122185468674
0.28000000000000003,0.027358135208487511
0.28499999999999998,0.0048561892472207546
0.28999999999999998,-0.016347568482160568
0.29499999999999998,-0.047215621918439865
0.29999999999999999,-0.060173474252223969
0.30499999999999999,-0.061471663415431976
0.31,-0.05151887983083725
0.315,-0.030531486496329308
0.32000000000000001,-0.020073851570487022
0.32500000000000001,-0.019208392128348351
0.33000000000000002,-0.03014683723449707
0.33500000000000002,-0.059548418968915939
0.34000000000000002,-0.082651376724243164
0.34499999999999997,-0.11234144866466522
0.34999999999999998,-0.12414535135030746
0.35499999999999998,-0.1270061731338501
0.35999999999999999,-0.12102007865905762
0.36499999999999999,-0.10779778659343719
0.37,-0.10058562457561493
0.375,-0.095128417015075684
0.38,-0.093421541154384613
0.38500000000000001,-0.088204741477966309
0.39000000000000001,-0.08063197135925293
0.39500000000000002,-0.063779555261135101
0.40000000000000002,-0.051398675888776779
0.40500000000000003,-0.035820405930280685
0.40999999999999998,-0.028824608772993088
0.41499999999999998,-0.022550027817487717
0.41999999999999998,-0.019520919770002365
0.42499999999999999,-0.013943513855338097
0.42999999999999999,-0.008822878822684288
0.435,0.00026444596005603671
0.44,0.0062745809555053711
0.44500000000000001,0.013991594314575195
0.45000000000000001,0.018006365746259689
0.45500000000000002,0.022357702255249023
0.46000000000000002,0.023631852120161057
0.46500000000000002,0.02091526985168457
0.46999999999999997,0.014881094917654991
0.47499999999999998,0.00038464865065179765
0.47999999999999998,-0.010072986595332623
0.48499999999999999,-0.020410418510437012
0.48999999999999999,-0.021396081894636154
0.495,-0.01538594625890255
0.5,-0.0096883382648229599
0.505,-0.0042551755905151367
0.51000000000000001,-0.0040628514252603054
0.51500000000000001,-0.0074525675736367702
0.52000000000000002,-0.010698040947318077
0.52500000000000002,-0.01584271714091301
0.53000000000000003,-0.019761323928833008
0.53500000000000003,-0.02644459530711174
0.54000000000000004,-0.030579566955566406
0.54500000000000004,-0.033897161483764648
0.55000000000000004,-0.033320188522338867
0.55500000000000005,-0.029161175712943077
0.56000000000000005,-0.025843581184744835
0.56499999999999995,-0.022742351517081261
0.56999999999999995,-0.022550027817487717
0.57499999999999996,-0.02428094670176506
0.57999999999999996,-0.025795500725507736
0.58499999999999996,-0.027430256828665733
0.58999999999999997,-0.028031270951032639
0.59499999999999997,-0.028536122292280197
0.59999999999999998,-0.02860824391245842
0.60499999999999998,-0.027718743309378624
0.60999999999999999,-0.026011865586042404
0.61499999999999999,-0.022189419716596603
0.62,-0.019953649491071701
0.625,-0.019713243469595909
0.63,-0.022429823875427246
0.63500000000000001,-0.029040973633527756
0.64000000000000001,-0.032358568161725998
0.64500000000000002,-0.03031512163579464
0.65000000000000002,-0.022670229896903038
0.65500000000000003,-0.0041349730454385281
0.66000000000000003,0.0087747974321246147
0.66500000000000004,0.020145973190665245
0.67000000000000004,0.018511217087507248
0.67500000000000004,0.00074525678064674139
0.68000000000000005,-0.018799703568220139
0.68500000000000005,-0.051374636590480804
0.68999999999999995,-0.0699339359998703
0.69499999999999995,-0.086065135896205902
0.69999999999999996,-0.087171003222465515
0.70499999999999996,-0.075270935893058777
0.70999999999999996,-0.060389839112758636
0.71499999999999997,-0.032382607460021973
0.71999999999999997,-0.012861689552664757
0.72499999999999998,0.012380878441035748
0.72999999999999998,0.023271244019269943
0.73499999999999999,0.02644459530711174
0.73999999999999999,0.020097892731428146
0.745,0.0060582160949707031
0.75,0.0028367838822305202
0.755,0.02416074275970459
0.76000000000000001,0.060558121651411057
0.76500000000000001,0.1368868350982666
0.77000000000000002,0.18179456889629364
0.77500000000000002,0.18922309577465057
0.78000000000000003,0.12645325064659119
0.78500000000000003,-0.086666151881217957
0.79000000000000004,-0.28911155462265015
0.79500000000000004,-0.6007009744644165
0.80000000000000004,-0.75066590309143066
0.80500000000000005,-0.80141544342041016
0.81000000000000005,-0.70345026254653931
0.81499999999999995,-0.40830454230308533
0.81999999999999995,-0.1737169474363327
0.82499999999999996,0.12479444593191147
0.82999999999999996,0.24696847796440125
0.83499999999999996,0.30517062544822693
0.83999999999999997,0.28331777453422546
0.84499999999999997,0.2144656628370285
0.84999999999999998,0.16955792903900146
0.85499999999999998,0.12227018922567368
0.85999999999999999,0.1038791760802269
0.86499999999999999,0.088637471199035645
0.87,0.083108149468898773
0.875,0.078588530421257019
0.88,0.077073976397514343
0.88500000000000001,0.075319014489650726
0.89000000000000001,0.073612138628959656
0.89500000000000002,0.069405041635036469
0.90000000000000002,0.065558552742004395
0.90500000000000003,0.058971446007490158
0.91000000000000003,0.054788392037153244
0.91500000000000004,0.050533216446638107
0.92000000000000004,0.049812000244855881
0.92500000000000004,0.051254432648420334
0.93000000000000005,0.052023731172084808
0.93500000000000005,0.048537850379943848
0.93999999999999995,0.041518013924360275
0.94499999999999995,0.025266608223319054
0.94999999999999996,0.0080535812303423882
0.95499999999999996,-0.00064909458160400391
0.95999999999999996,-0.0087026758119463921
0.96499999999999997,-0.012813608162105083
0.96999999999999997,-0.022357702255249023
0.97499999999999998,-0.032959580421447754
0.97999999999999998,-0.054163336753845215
0.98499999999999999,-0.069140598177909851
0.98999999999999999,-0.087675854563713074
0.995,-0.095633268356323242
1,-0.10118663311004639
1.0049999999999999,-0.10195593535900116
1.01,-0.10109047591686249
1.0149999999999999,-0.099624000489711761
1.02,-0.095152460038661957
1.0249999999999999,-0.089767381548881531
1.03,-0.077290341258049011
1.0349999999999999,-0.06644805520772934
1.04,-0.047864716500043869
1.0449999999999999,-0.03476262092590332
1.05,-0.021323960274457932
1.0549999999999999,7.2121620178222656e-05
1.0600000000000001,0.023655891418457031
1.0649999999999999,0.04029194638133049
1.0700000000000001,0.064452692866325378
1.075,0.078564487397670746
1.0800000000000001,0.095056295394897461
1.085,0.10306179523468018
1.0900000000000001,0.11190871894359589
1.095,0.11645238101482391
1.1000000000000001,0.121404729783535
1.105,0.12296736240386963
1.1100000000000001,0.12195765972137451
1.115,0.11948148906230927
1.1200000000000001,0.11537055671215057
1.125,0.11390408128499985
1.1299999999999999,0.11488974094390869
1.135,0.11724571883678436
1.1399999999999999,0.12152493000030518
1.145,0.1239289864897728
1.1499999999999999,0.12599647045135498
1.155,0.1259724348783493
1.1599999999999999,0.12282311916351318
1.165,0.11789481341838837
1.1699999999999999,0.10640343278646469
1.175,0.0976286381483078
1.1799999999999999,0.087435446679592133
1.1850000000000001,0.085079476237297058
1.1899999999999999,0.088998079299926758
1.1950000000000001,0.094791851937770844
1.2,0.10337432473897934
1.2050000000000001,0.10681211948394775
1.21,0.10765354335308075
1.2150000000000001,0.1063072681427002
1.22,0.10356664657592773
1.2250000000000001,0.10195593535900116
1.23,0.099864408373832703
1.2350000000000001,0.098638340830802917
1.24,0.097460351884365082
1.2450000000000001,0.097700759768486023
1.25,0.10012885183095932
1.2549999999999999,0.10284543037414551
1.26,0.10700444877147675
1.2649999999999999,0.10878344625234604
1.27,0.10880748927593231
1.2749999999999999,0.10690828412771225
1.28,0.10178764909505844
1.2849999999999999,0.097292065620422363
1.29,0.089839503169059753
1.2949999999999999,0.085127554833889008
1.3,0.080151163041591644
1.3049999999999999,0.07921358197927475
1.3100000000000001,0.081761881709098816
1.3149999999999999,0.085007354617118835
1.3200000000000001,0.088180705904960632
1.325,0.086497865617275238
1.3300000000000001,0.075751744210720062
1.335,0.063995920121669769
1.3400000000000001,0.045148134231567383
1.345,0.036253135651350021
1.3500000000000001,0.034281812608242035
1.355,0.041518013924360275
1.3600000000000001,0.061904393136501312
1.365,0.07813175767660141
1.3700000000000001,0.099575921893119812
1.375,0.10887961089611053
1.3799999999999999,0.11277417838573456
1.385,0.10921617597341537
1.3899999999999999,0.10015289485454559
1.395,0.097748838365077972
1.3999999999999999,0.11262993514537811
1.405,0.14027655124664307
1.4099999999999999,0.20465712249279022
1.415,0.24934849143028259
1.4199999999999999,0.27771633863449097
1.425,0.24341046810150146
1.4299999999999999,0.082603298127651215
1.4350000000000001,-0.091618500649929047
1.4399999999999999,-0.39380809664726257
1.4450000000000001,-0.56649130582809448
1.45,-0.68748736381530762
1.4550000000000001,-0.64553660154342651
1.46,-0.41623792052268982
1.4650000000000001,-0.19987305998802185
1.47,0.1130145788192749
1.4750000000000001,0.26314777135848999
1.48,0.36623358726501465
1.4850000000000001,0.3647911548614502
1.49,0.30579566955566406
1.4950000000000001,0.25687319040298462
1.5,0.19787769019603729
1.5049999999999999,0.17227451503276825
1.51,0.1492917537689209
1.5149999999999999,0.13989190757274628
1.52,0.13013145327568054
1.5249999999999999,0.12544354796409607
1.53,0.12013058364391327
1.5349999999999999,0.11700531095266342
1.54,0.11147598922252655
1.5449999999999999,0.10642747581005096
1.55,0.095392867922782898
1.5549999999999999,0.085343919694423676
1.5600000000000001,0.067505836486816406
1.5649999999999999,0.056158702820539474
1.5700000000000001,0.045701067894697189
1.575,0.045701067894697189
1.5800000000000001,0.055605769157409668
1.585,0.065173909068107605
1.5900000000000001,0.075343057513237
1.595,0.075607500970363617
1.6000000000000001,0.065726839005947113
1.605,0.054956674575805664
1.6100000000000001,0.038080215454101562
1.615,0.02815147303044796
1.6200000000000001,0.014977256767451763
1.625,0.0060582160949707031
1.6299999999999999,-0.0091594457626342773
1.635,-0.020602744072675705
1.6399999999999999,-0.038657188415527344
1.645,-0.050413012504577637
1.6499999999999999,-0.065847039222717285
1.655,-0.073347687721252441
1.6599999999999999,-0.078059636056423187
1.665,-0.075992152094841003
1.6699999999999999,-0.065726839005947113
1.675,-0.055485568940639496
1.6799999999999999,-0.037911932915449142
1.6850000000000001,-0.02569933794438839
1.6899999999999999,-0.0064428648911416531
1.6950000000000001,0.0076208515092730522
1.7,0.030771892517805099
1.7050000000000001,0.046614609658718109
1.71,0.068010687828063965
1.7150000000000001,0.079237625002861023
1.72,0.091354057192802429
1.7250000000000001,0.097484394907951355
1.73,0.10654767602682114
1.7350000000000001,0.11342327296733856
1.74,0.12419342994689941
1.7450000000000001,0.13034781813621521
1.75,0.13611754775047302
1.7549999999999999,0.13746380805969238
1.76,0.13705512881278992
1.7649999999999999,0.1361415833234787
1.77,0.13472318649291992
1.7749999999999999,0.13354520499706268
1.78,0.13078054785728455
1.7849999999999999,0.12789568305015564
1.79,0.12212594598531723
1.7949999999999999,0.11755824089050293
1.8,0.11022587865591049
1.8049999999999999,0.10539373010396957
1.8100000000000001,0.098878741264343262
1.8149999999999999,0.09551306813955307
1.8200000000000001,0.092604160308837891
1.825,0.092147395014762878
1.8300000000000001,0.09301285445690155
1.835,0.093902349472045898
1.8400000000000001,0.094503365457057953
1.845,0.094022557139396667
1.8500000000000001,0.092171430587768555
1.855,0.090728998184204102
1.8600000000000001,0.089551016688346863
1.865,0.090031825006008148
1.8700000000000001,0.092988811433315277
1.875,0.096114084124565125
1.8799999999999999,0.10097026824951172
1.885,0.1031339168548584
1.8899999999999999,0.10315795987844467
1.895,0.10101835429668427
1.8999999999999999,0.096426606178283691
1.905,0.093998514115810394
1.9099999999999999,0.0930609330534935
1.915,0.093950435519218445
1.9199999999999999,0.095056295394897461
1.925,0.094046592712402344
1.9299999999999999,0.089094243943691254
1.9350000000000001,0.084598660469055176
1.9399999999999999,0.079670354723930359
1.9450000000000001,0.07921358197927475
1.95,0.082435011863708496
1.9550000000000001,0.085127554833889008
1.96,0.08491118997335434
1.9650000000000001,0.075895987451076508
1.97,0.06570279598236084
1.9750000000000001,0.054572027176618576
1.98,0.042479634284973145
1.9850000000000001,0.042407512664794922
1.99,0.049932204186916351
1.9950000000000001,0.06923675537109375
2,0.084045730531215668
2.0049999999999999,0.10320603847503662
2.0099999999999998,0.11135578155517578
2.0150000000000001,0.1145050972700119
2.02,0.11118750274181366
2.0249999999999999,0.10347048938274384
2.0299999999999998,0.10226845741271973
2.0350000000000001,0.11808713525533676
2.04,0.14486829936504364
2.0449999999999999,0.20496964454650879
2.0499999999999998,0.24557411670684814
2.0550000000000002,0.26932618021965027
2.0600000000000001,0.23523668944835663
2.0649999999999999,0.081593595445156097
2.0699999999999998,-0.084430381655693054
2.0750000000000002,-0.37462374567985535
2.0800000000000001,-0.54314792156219482
2.085,-0.6669086217880249
2.0899999999999999,-0.63200175762176514
2.0950000000000002,-0.41580519080162048
2.1000000000000001,-0.20638804137706757
2.105,0.0066832704469561577
2.1099999999999999,0.25321900844573975
2.1150000000000002,0.36046385765075684
2.1200000000000001,0.36181014776229858
2.125,0.30533891916275024
2.1299999999999999,0.25694531202316284
2.1349999999999998,0.1974930465221405
2.1400000000000001,0.17090420424938202
2.145,0.15258531272411346
2.1499999999999999,0.13392984867095947
2.1549999999999998,0.12080371379852295
2.1600000000000001,0.11448105424642563
2.165,0.10825455188751221
2.1699999999999999,0.1054658517241478
2.1749999999999998,0.10128279775381088
2.1800000000000002,0.097772881388664246
2.1850000000000001,0.091522336006164551
2.1899999999999999,0.087459489703178406
2.1949999999999998,0.08269946277141571
2.2000000000000002,0.080607935786247253
2.2050000000000001,0.078155800700187683
2.21,0.075992152094841003
2.2149999999999999,0.070583030581474304
2.2200000000000002,0.065173909068107605
2.2250000000000001,0.054716270416975021
2.23,0.046662688255310059
2.2349999999999999,0.033608675003051758
2.2400000000000002,0.024497311562299728
2.2450000000000001,0.010457634925842285
2.25,0.00091354054166004062
2.2549999999999999,-0.01322229765355587
2.2599999999999998,-0.022309621796011925
2.2650000000000001,-0.035291515290737152
2.27,-0.04365762323141098
2.2749999999999999,-0.056351028382778168
2.2799999999999998,-0.065053701400756836
2.2850000000000001,-0.077747106552124023
2.29,-0.084839068353176117
2.2949999999999999,-0.090753041207790375
2.2999999999999998,-0.090055868029594421
2.3050000000000002,-0.081136822700500488
2.3100000000000001,-0.070558987557888031
2.3149999999999999,-0.050340890884399414
2.3199999999999998,-0.035580001771450043
2.3250000000000002,-0.013078054413199425
2.3300000000000001,0.0019713244400918484
2.335,0.024857919663190842
2.3399999999999999,0.040051542222499847
2.3450000000000002,0.061231255531311035
2.3500000000000001,0.073227487504482269
2.355,0.087339282035827637
2.3599999999999999,0.094863973557949066
2.3650000000000002,0.10539373010396957
2.3700000000000001,0.11275013536214828
2.375,0.1239289864897728
2.3799999999999999,0.13020357489585876
2.3849999999999998,0.13554057478904724
2.3900000000000001,0.13582906126976013
2.395,0.13267974555492401
2.3999999999999999,0.12977084517478943
2.4049999999999998,0.12671768665313721
2.4100000000000001,0.12626092135906219
2.415,0.12743890285491943
2.4199999999999999,0.12861689925193787
2.4249999999999998,0.12950639426708221
2.4300000000000002,0.12895345687866211
2.4350000000000001,0.12611667811870575
2.4399999999999999,0.12294332683086395
2.4449999999999998,0.11650045961141586
2.4500000000000002,0.1113317459821701
2.4550000000000001,0.10318200290203094
2.46,0.098373889923095703
2.4649999999999999,0.093541741371154785
2.4700000000000002,0.092315673828125
2.4750000000000001,0.092964768409729004
2.48,0.094238921999931335
2.4849999999999999,0.095993876457214355
2.4900000000000002,0.096739135682582855
2.4950000000000001,0.097484394907951355
2.5,0.098181568086147308
2.5049999999999999,0.099888443946838379
2.5099999999999998,0.10123471915721893
2.5150000000000001,0.10265310853719711
2.52,0.10277330875396729
2.5249999999999999,0.10159532725811005
2.5299999999999998,0.10036925971508026
2.5350000000000001,0.099503800272941589
2.54,0.10046541690826416
2.5449999999999999,0.10445614904165268
2.5499999999999998,0.10796606540679932
2.5550000000000002,0.11159618943929672
2.5600000000000001,0.11147598922252655
2.5649999999999999,0.10664384067058563
2.5699999999999998,0.10116259753704071
2.5750000000000002,0.092339716851711273
2.5800000000000001,0.087651811540126801
2.585,0.08411785215139389
2.5899999999999999,0.084382295608520508
2.5950000000000002,0.088276863098144531
2.6000000000000001,0.092243552207946777
2.605,0.097099743783473969
2.6099999999999999,0.097219944000244141
2.6150000000000002,0.089719295501708984
2.6200000000000001,0.079694390296936035
2.625,0.061663985252380371
2.6299999999999999,0.051903527230024338
2.6349999999999998,0.047311782836914062
2.6400000000000001,0.052552621811628342
2.645,0.07060706615447998
2.6499999999999999,0.085920892655849457
2.6549999999999998,0.1069563627243042
2.6600000000000001,0.11650045961141586
2.665,0.12145280838012695
2.6699999999999999,0.11890451610088348
2.6749999999999998,0.11125962436199188
2.6800000000000002,0.10899981111288071
2.6850000000000001,0.12166917324066162
2.6899999999999999,0.1461184024810791
2.6949999999999998,0.2051379382610321
2.7000000000000002,0.24809837341308594
2.7050000000000001,0.28038483858108521
2.71,0.25355559587478638
2.7149999999999999,0.10741313546895981
2.7200000000000002,-0.059572458267211914
2.7250000000000001,-0.36351701617240906
2.73,-0.54841279983520508
2.7349999999999999,-0.70037305355072021
2.7400000000000002,-0.68087619543075562
2.7450000000000001,-0.47456026077270508
2.75,-0.26148897409439087
2.7549999999999999,0.063803598284721375
2.7599999999999998,0.22869765758514404
2.7650000000000001,0.35272282361984253
2.77,0.36017537117004395
2.7749999999999999,0.30579566955566406
2.7799999999999998,0.25622409582138062
2.7850000000000001,0.19508898258209229
2.79,0.16893288493156433
2.7949999999999999,0.14671942591667175
2.7999999999999998,0.13825714588165283
2.8050000000000002,0.1291457861661911
2.8100000000000001,0.12400110810995102
2.8149999999999999,0.1168370246887207
2.8199999999999998,0.11231740564107895
2.8250000000000002,0.10604282468557358
2.8300000000000001,0.10248482227325439
2.835,0.098446011543273926
2.8399999999999999,0.09659489244222641
2.8450000000000002,0.094359122216701508
2.8500000000000001,0.092676281929016113
2.855,0.088901922106742859
2.8599999999999999,0.085127554833889008
2.8650000000000002,0.077242255210876465
2.8700000000000001,0.070583030581474304
2.875,0.059380136430263519
2.8799999999999999,0.051783323287963867
2.8849999999999998,0.040989123284816742
2.8900000000000001,0.033993326127529144
2.895,0.022501945495605469
2.8999999999999999,0.013294419273734093
2.9049999999999998,-0.0033175945281982422
2.9100000000000001,-0.015698473900556564
2.915,-0.034233730286359787
2.9199999999999999,-0.045484703034162521
2.9249999999999998,-0.059692662209272385
2.9300000000000002,-0.067337557673454285
2.9350000000000001,-0.075944066047668457
2.9399999999999999,-0.079405903816223145
2.9449999999999998,-0.080271363258361816
2.9500000000000002,-0.077650949358940125
2.9550000000000001,-0.069405041635036469
2.96,-0.061688028275966644
2.9649999999999999,-0.047768555581569672
2.9700000000000002,-0.037286877632141113
2.9750000000000001,-0.019881527870893478
2.98,-0.0074044866487383842
2.9849999999999999,0.011900067329406738
2.9900000000000002,0.024737715721130371
2.9950000000000001,0.044042270630598068
3,0.057120323181152344
3.0049999999999999,0.076809525489807129
3.0099999999999998,0.088998079299926758
3.0150000000000001,0.10347048938274384
3.02,0.10945658385753632
3.0249999999999999,0.11308670043945312
3.0299999999999998,0.11330306529998779
3.0350000000000001,0.11347135156393051
3.04,0.11481761932373047
3.0449999999999999,0.11883239448070526
3.0499999999999998,0.12181341648101807
3.0550000000000002,0.12450595945119858
3.0600000000000001,0.12412130832672119
3.0649999999999999,0.12008249759674072
3.0699999999999998,0.11570712178945541
3.0750000000000002,0.10847091674804688
3.0800000000000001,0.10416766256093979
3.085,0.099335514008998871
3.0899999999999999,0.097123786807060242
3.0950000000000002,0.094527408480644226
3.1000000000000001,0.092820525169372559
3.105,0.090007781982421875
3.1099999999999999,0.088156662881374359
3.1150000000000002,0.086113214492797852
3.1200000000000001,0.085584327578544617
3.125,0.086017057299613953
3.1299999999999999,0.086738273501396179
3.1349999999999998,0.08736332505941391
3.1400000000000001,0.086810395121574402
3.145,0.083973608911037445
3.1499999999999999,0.081040665507316589
3.1549999999999998,0.076665282249450684
3.1600000000000001,0.07488628476858139
3.165,0.075030528008937836
3.1699999999999999,0.076905690133571625
3.1749999999999998,0.081040665507316589
3.1800000000000002,0.083805322647094727
3.1850000000000001,0.086762309074401855
3.1899999999999999,0.08769989013671875
3.1949999999999998,0.08769989013671875
3.2000000000000002,0.087050795555114746
3.2050000000000001,0.085848771035671234
3.21,0.085440084338188171
3.2149999999999999,0.085993014276027679
3.2200000000000002,0.087002716958522797
3.2250000000000001,0.088348984718322754
3.23,0.088276863098144531
3.2349999999999999,0.086113214492797852
3.2400000000000002,0.083757244050502777
3.2450000000000001,0.080439649522304535
3.25,0.079021260142326355
3.2549999999999999,0.078035593032836914
3.2599999999999998,0.077410541474819183
3.2650000000000001,0.075415179133415222
3.27,0.073395773768424988
3.2749999999999999,0.070342622697353363
3.2799999999999998,0.068804025650024414
3.2850000000000001,0.06644805520772934
3.29,0.063418947160243988
3.2949999999999999,0.054331623017787933
3.2999999999999998,0.045340459793806076
3.3050000000000002,0.031012296676635742
3.3100000000000001,0.022670229896903038
3.3149999999999999,0.02353568933904171
3.3199999999999998,0.034906864166259766
3.3250000000000002,0.047047339379787445
3.3300000000000001,0.066616341471672058
3.335,0.077602863311767578
3.3399999999999999,0.087675854563713074
3.3450000000000002,0.089454852044582367
3.3500000000000001,0.085993014276027679
3.355,0.082386933267116547
3.3599999999999999,0.084238052368164062
3.3650000000000002,0.096859335899353027
3.3700000000000001,0.14010827243328094
3.375,0.18222729861736298
3.3799999999999999,0.24146318435668945
3.3849999999999998,0.25442105531692505
3.3900000000000001,0.18898269534111023
3.395,0.072530314326286316
3.3999999999999999,-0.19900760054588318
3.4049999999999998,-0.40847283601760864
3.4100000000000001,-0.66832703351974487
3.415,-0.74864649772644043
3.4199999999999999,-0.72725039720535278
3.4249999999999998,-0.51509261131286621
3.4300000000000002,-0.18167436122894287
3.4350000000000001,0.034402012825012207
3.4399999999999999,0.26043117046356201
3.4449999999999998,0.32596570253372192
3.4500000000000002,0.31868141889572144
3.4550000000000001,0.27447086572647095
3.46,0.20020961761474609
3.4649999999999999,0.16251406073570251
3.4700000000000002,0.12957851588726044
3.4750000000000001,0.11900067329406738
3.48,0.11073072999715805
3.4849999999999999,0.10671596229076385
3.4900000000000002,0.10034521669149399
3.4950000000000001,0.095440946519374847
3.5,0.087074838578701019
3.5049999999999999,0.081305108964443207
3.5099999999999998,0.073660217225551605
3.5150000000000001,0.070030093193054199
3.52,0.067145228385925293
3.5249999999999999,0.066327854990959167
3.5299999999999998,0.06502966582775116
3.5350000000000001,0.063106417655944824
3.54,0.057625174522399902
3.5449999999999999,0.052240096032619476
3.5499999999999998,0.042383473366498947
3.5550000000000002,0.035363636910915375
3.5600000000000001,0.025314688682556152
3.5649999999999999,0.019256472587585449
3.5699999999999998,0.010722081176936626
3.5750000000000002,0.004519621841609478
3.5800000000000001,-0.0074525675736367702
3.585,-0.018006365746259689
3.5899999999999999,-0.037527285516262054
3.5950000000000002,-0.051903527230024338
3.6000000000000001,-0.072746679186820984
3.605,-0.084815025329589844
3.6099999999999999,-0.098974905908107758
3.6150000000000002,-0.10561009496450424
3.6200000000000001,-0.1113317459821701
3.625,-0.11224528402090073
3.6299999999999999,-0.10899981111288071
3.6349999999999998,-0.10399937629699707
3.6400000000000001,-0.093253254890441895
3.645,-0.084742903709411621
3.6499999999999999,-0.070583030581474304
3.6549999999999998,-0.059812866151332855
3.6600000000000001,-0.040219824761152267
3.665,-0.024425189942121506
3.6699999999999999,0.002283851383253932
3.6749999999999998,0.020314257591962814
3.6800000000000002,0.043946109712123871
3.6850000000000001,0.055846177041530609
3.6899999999999999,0.067602001130580902
3.6949999999999998,0.072602435946464539
3.7000000000000002,0.078708730638027191
3.7050000000000001,0.082915827631950378
3.71,0.089166365563869476
3.7149999999999999,0.092267595231533051
3.7200000000000002,0.093902349472045898
3.7250000000000001,0.093084976077079773
3.73,0.090825162827968597
3.7349999999999999,0.089839503169059753
3.7400000000000002,0.08986353874206543
3.7450000000000001,0.09015202522277832
3.75,0.089406773447990417
3.7549999999999999,0.08769989013671875
3.7599999999999998,0.084189973771572113
3.7650000000000001,0.08200228214263916
3.77,0.07950206845998764
3.7749999999999999,0.077867314219474792
3.7799999999999998,0.074285268783569336
3.7850000000000001,0.070919595658779144
3.79,0.065342187881469727
3.7949999999999999,0.062265001237392426
3.7999999999999998,0.059740744531154633
3.8050000000000002,0.059452258050441742
3.8100000000000001,0.060197513550519943
3.8149999999999999,0.060846608132123947
3.8199999999999998,0.061351459473371506
3.8250000000000002,0.061111055314540863
3.8300000000000001,0.059644579887390137
3.835,0.057961743324995041
3.8399999999999999,0.055028796195983887
3.8450000000000002,0.053466163575649261
3.8500000000000001,0.053009390830993652
3.855,0.054379701614379883
3.8599999999999999,0.058538716286420822
3.8650000000000002,0.061928432434797287
3.8700000000000001,0.066351890563964844
3.875,0.068299174308776855
3.8799999999999999,0.069549284875392914
3.8849999999999998,0.069453120231628418
3.8900000000000001,0.068203017115592957
3.895,0.066664420068264008
3.8999999999999999,0.063587233424186707
3.9049999999999998,0.061471663415431976
3.9100000000000001,0.059283971786499023
3.915,0.058995485305786133
3.9199999999999999,0.060197513550519943
3.9249999999999998,0.061447620391845703
3.9300000000000002,0.062649652361869812
3.9350000000000001,0.062553487718105316
3.9399999999999999,0.061255298554897308
3.9449999999999998,0.060029231011867523
3.9500000000000002,0.057961743324995041
3.9550000000000001,0.056254863739013672
3.96,0.052576661109924316
3.9649999999999999,0.04940330982208252
3.9700000000000002,0.044595204293727875
3.9750000000000001,0.042503677308559418
3.98,0.042359434068202972
3.9849999999999999,0.0438259057700634
3.9900000000000002,0.045556824654340744
3.9950000000000001,0.044018231332302094
4,0.035075150430202484
4.0049999999999999,0.024978121742606163
4.0099999999999998,0.0078852977603673935
4.0149999999999997,-0.0011299054604023695
4.0199999999999996,-0.0055774054490029812
4.0250000000000004,-0.0012020270805805922
4.0300000000000002,0.014568567276000977
4.0350000000000001,0.028512081131339073
4.04,0.048754215240478516
4.0449999999999999,0.058779120445251465
4.0499999999999998,0.06502966582775116
4.0549999999999997,0.063082382082939148
4.0599999999999996,0.055365364998579025
4.0650000000000004,0.052865147590637207
4.0700000000000003,0.066327854990959167
4.0750000000000002,0.092868611216545105
4.0800000000000001,0.1569366455078125
4.085,0.20304641127586365
4.0899999999999999,0.23598194122314453
4.0949999999999998,0.20506581664085388
4.0999999999999996,0.045340459793806076
4.1050000000000004,-0.13392984867095947
4.1100000000000003,-0.45544803142547607
4.1150000000000002,-0.64767622947692871
4.1200000000000001,-0.79980474710464478
4.125,-0.77314376831054688
4.1299999999999999,-0.54925423860549927
4.1349999999999998,-0.32360970973968506
4.1399999999999997,0.016251405701041222
4.1449999999999996,0.18626610934734344
4.1500000000000004,0.31142115592956543
4.1550000000000002,0.31675815582275391
4.1600000000000001,0.25797903537750244
4.165,0.20614764094352722
4.1699999999999999,0.14402687549591064
4.1749999999999998,0.11868815124034882
4.1799999999999997,0.09871046245098114
4.1849999999999996,0.091426178812980652
4.1900000000000004,0.08269946277141571
4.1950000000000003,0.077170133590698242
4.2000000000000002,0.069789692759513855
4.2050000000000001,0.065871082246303558
4.21,0.061111055314540863
4.2149999999999999,0.057961743324995041
4.2199999999999998,0.051999688148498535
4.2249999999999996,0.046999257057905197
4.2300000000000004,0.038993757218122482
4.2350000000000003,0.03442605584859848
4.2400000000000002,0.030170878395438194
4.2450000000000001,0.028944810852408409
4.25,0.027646621689200401
4.2549999999999999,0.025651257485151291
4.2599999999999998,0.019256472587585449
4.2649999999999997,0.012669364921748638
4.2699999999999996,0.00064909458160400391
4.2750000000000004,-0.0078131761401891708
4.2800000000000002,-0.020698904991149902
4.2850000000000001,-0.029882391914725304
4.29,-0.045965515077114105
4.2949999999999999,-0.058562755584716797
4.2999999999999998,-0.079381868243217468
4.3049999999999997,-0.09334941953420639
4.3099999999999996,-0.11212508380413055
4.3150000000000004,-0.12640516459941864
4.3200000000000003,-0.13289611041545868
4.3250000000000002,-0.13775229454040527
4.3300000000000001,-0.13775229454040527
4.335,-0.13356924057006836
4.3399999999999999,-0.12868902087211609
4.3449999999999998,-0.11950552463531494
4.3499999999999996,-0.1123654842376709
4.3550000000000004,-0.09909510612487793
4.3600000000000003,-0.087483525276184082
4.3650000000000002,-0.064789257943630219
4.3700000000000001,-0.046662688255310059
4.375,-0.017790000885725021
4.3799999999999999,0.00043272972106933594
4.3849999999999998,0.023367404937744141
4.3899999999999997,0.035123229026794434
4.3949999999999996,0.048057042062282562
4.4000000000000004,0.054283540695905685
4.4050000000000002,0.061255298554897308
4.4100000000000001,0.064765214920043945
4.415,0.069092512130737305
4.4199999999999999,0.071809098124504089
4.4249999999999998,0.076088309288024902
4.4299999999999997,0.079021260142326355
4.4349999999999996,0.082675419747829437
4.4400000000000004,0.083949565887451172
4.4450000000000003,0.083444714546203613
4.4500000000000002,0.081641674041748047
4.4550000000000001,0.077699027955532074
4.46,0.074910327792167664
4.4649999999999999,0.071087881922721863
4.4699999999999998,0.068804025650024414
4.4749999999999996,0.065414309501647949
4.4800000000000004,0.063082382082939148
4.4850000000000003,0.059764783829450607
4.4900000000000002,0.058081947267055511
4.4950000000000001,0.056976079940795898
4.5,0.057168405503034592
4.5049999999999999,0.057985782623291016
4.5099999999999998,0.058130025863647461
4.5149999999999997,0.056903958320617676
4.5199999999999996,0.055197082459926605
4.5250000000000004,0.052312217652797699
4.5300000000000002,0.050821702927350998
4.5350000000000001,0.049860082566738129
4.54,0.049932204186916351
4.5449999999999999,0.050797663629055023
4.5499999999999998,0.051759283989667892
4.5549999999999997,0.053850810974836349
4.5599999999999996,0.055533647537231445
4.5650000000000004,0.057745378464460373
4.5700000000000003,0.058466594666242599
4.5750000000000002,0.058105986565351486
4.5800000000000001,0.057120323181152344
4.585,0.055533647537231445
4.5899999999999999,0.054884552955627441
4.5949999999999998,0.054908595979213715
4.5999999999999996,0.055557690560817719
4.6050000000000004,0.056976079940795898
4.6100000000000003,0.058009825646877289
4.6150000000000002,0.059380136430263519
4.6200000000000001,0.060101352632045746
4.625,0.06108701229095459
4.6299999999999999,0.061904393136501312
4.6349999999999998,0.063442990183830261
4.6399999999999997,0.064380571246147156
4.6449999999999996,0.064741179347038269
4.6500000000000004,0.063779555261135101
4.6550000000000002,0.060413878411054611
4.6600000000000001,0.057168405503034592
4.665,0.05168716236948967
4.6699999999999999,0.048249363899230957
4.6749999999999998,0.044715404510498047
4.6799999999999997,0.044234596192836761
4.6849999999999996,0.047095417976379395
4.6900000000000004,0.050821702927350998
4.6950000000000003,0.055870216339826584
4.7000000000000002,0.056158702820539474
4.7050000000000001,0.048682093620300293
4.71,0.038681231439113617
4.7149999999999999,0.020843148231506348
4.7199999999999998,0.011130770668387413
4.7249999999999996,0.0057697296142578125
4.7300000000000004,0.0095921754837036133
4.7350000000000003,0.024593472480773926
4.7400000000000002,0.038080215454101562
4.7450000000000001,0.058322351425886154
4.75,0.069068476557731628
4.7549999999999999,0.077650949358940125
4.7599999999999998,0.077963471412658691
4.7649999999999997,0.074213147163391113
4.7699999999999996,0.07454971969127655
4.7750000000000004,0.092195473611354828
4.7800000000000002,0.12089987844228745
4.7850000000000001,0.18556892871856689
4.79,0.22934675216674805
4.7949999999999999,0.2542768120765686
4.7999999999999998,0.21631678938865662
4.8049999999999997,0.048417650163173676
4.8099999999999996,-0.13114115595817566
4.8150000000000004,-0.44131219387054443
4.8200000000000003,-0.61870735883712769
4.8250000000000002,-0.74443936347961426
4.8300000000000001,-0.70333003997802734
4.835,-0.47112247347831726
4.8399999999999999,-0.25071880221366882
4.8449999999999998,0.069020390510559082
4.8499999999999996,0.22254328429698944
4.8550000000000004,0.32762449979782104
4.8600000000000003,0.3258935809135437
4.8650000000000002,0.26617687940597534
4.8700000000000001,0.21783134341239929
4.875,0.16184091567993164
4.8799999999999999,0.13907453417778015
4.8849999999999998,0.11979401111602783
4.8899999999999997,0.11174043267965317
4.8949999999999996,0.10181169211864471
4.9000000000000004,0.09584963321685791
4.9050000000000002,0.087723933160305023
4.9100000000000001,0.082771584391593933
4.915,0.075920030474662781
4.9199999999999999,0.071881219744682312
4.9249999999999998,0.067121192812919617
4.9299999999999997,0.064813300967216492
4.9349999999999996,0.061976514756679535
4.9400000000000004,0.05983690544962883
4.9450000000000003,0.055509608238935471
4.9500000000000002,0.051879487931728363
4.9550000000000001,0.046061675995588303
4.96,0.042263269424438477
4.9649999999999999,0.036469500511884689
4.9699999999999998,0.031877756118774414
4.9749999999999996,0.022622149437665939
4.9800000000000004,0.014400283806025982
4.9850000000000003,-0.00074525678064674139
4.9900000000000002,-0.012092391960322857
4.9950000000000001,-0.030002593994140625
5,-0.042167108505964279
5.0049999999999999,-0.060437917709350586
5.0099999999999998,-0.072386071085929871
5.0149999999999997,-0.088974043726921082
5.0199999999999996,-0.098325811326503754
5.0250000000000004,-0.10863920301198959
5.0300000000000002,-0.11262993514537811
5.0350000000000001,-0.11412044614553452
5.04,-0.11214911937713623
5.0449999999999999,-0.10474463552236557
5.0499999999999998,-0.096763178706169128
5.0549999999999997,-0.080463692545890808
5.0599999999999996,-0.067241393029689789
5.0650000000000004,-0.045532785356044769
5.0700000000000003,-0.030747851356863976
5.0750000000000002,-0.0092796487733721733
5.0800000000000001,0.00430325698107481
5.085,0.023559730499982834
5.0899999999999999,0.03567616268992424
5.0949999999999998,0.052504539489746094
5.0999999999999996,0.062625609338283539
5.1050000000000004,0.07601618766784668
5.1100000000000003,0.083829365670681
5.1150000000000002,0.094118714332580566
5.1200000000000001,0.099888443946838379
5.125,0.10645151138305664
5.1299999999999999,0.1092882975935936
5.1349999999999998,0.11164426803588867
5.1399999999999997,0.11258184909820557
5.1449999999999996,0.11400024592876434
5.1500000000000004,0.11500994861125946
5.1550000000000002,0.11585136502981186
5.1600000000000001,0.11517822742462158
5.165,0.11171638965606689
5.1699999999999999,0.10789394378662109
5.1749999999999998,0.10097026824951172
5.1799999999999997,0.096162162721157074
5.1849999999999996,0.089214444160461426
5.1900000000000004,0.084959268569946289
5.1950000000000003,0.079478025436401367
5.2000000000000002,0.07671336829662323
5.2050000000000001,0.074189111590385437
5.21,0.073540017008781433
5.2149999999999999,0.07351597398519516
5.2199999999999998,0.073588095605373383
5.2249999999999996,0.073131322860717773
5.2300000000000004,0.07248222827911377
5.2350000000000003,0.071520611643791199
5.2400000000000002,0.071304246783256531
5.2450000000000001,0.071929298341274261
5.25,0.072842836380004883
5.2549999999999999,0.074525676667690277
5.2599999999999998,0.075727701187133789
5.2649999999999997,0.077843271195888519
5.2699999999999996,0.079718433320522308
5.2750000000000004,0.083252392709255219
5.2800000000000002,0.085560284554958344
5.2850000000000001,0.087603732943534851
5.29,0.087507568299770355
5.2949999999999999,0.085391998291015625
5.2999999999999998,0.08349280059337616
5.3049999999999997,0.081689760088920593
5.3099999999999996,0.082507133483886719
5.3150000000000004,0.084358260035514832
5.3200000000000003,0.086642108857631683
5.3250000000000002,0.089575052261352539
5.3300000000000001,0.09056071937084198
5.335,0.090584754943847656
5.3399999999999999,0.08986353874206543
5.3449999999999998,0.089551016688346863
5.3499999999999996,0.089334651827812195
5.3550000000000004,0.088853836059570312
5.3600000000000003,0.086353622376918793
5.3650000000000002,0.083180271089076996
5.3700000000000001,0.077073976397514343
5.375,0.073371730744838715
5.3799999999999999,0.071039795875549316
5.3849999999999998,0.071208082139492035
5.3899999999999997,0.074573755264282227
5.3949999999999996,0.076424881815910339
5.4000000000000004,0.074525676667690277
5.4050000000000002,0.068395338952541351
5.4100000000000001,0.052240096032619476
5.415,0.039306282997131348
5.4199999999999999,0.027742784470319748
5.4249999999999998,0.018847784027457237
5.4299999999999997,0.024665594100952148
5.4349999999999996,0.036229096353054047
5.4400000000000004,0.059933066368103027
5.4450000000000003,0.075823865830898285
5.4500000000000002,0.093109011650085449
5.4550000000000001,0.097772881388664246
5.46,0.094335079193115234
5.4649999999999999,0.088156662881374359
5.4699999999999998,0.083997651934623718
5.4749999999999996,0.092628203332424164
5.4800000000000004,0.13236722350120544
5.4850000000000003,0.17503917217254639
5.4900000000000002,0.24143914878368378
5.4950000000000001,0.2638930082321167
5.5,0.21886508166790009
5.5049999999999999,0.11784672737121582
5.5099999999999998,-0.1344587504863739
5.5149999999999997,-0.33851486444473267
5.5199999999999996,-0.60724002122879028
5.5250000000000004,-0.70501291751861572
5.5300000000000002,-0.67027431726455688
5.5350000000000001,-0.530190110206604
5.54,-0.21686971187591553
5.5449999999999999,-0.0011299054604023695
5.5499999999999998,0.24091026186943054
5.5549999999999997,0.32233557105064392
5.5599999999999996,0.33587038516998291
5.5650000000000004,0.29976150393486023
5.5700000000000003,0.22831301391124725
5.5750000000000002,0.18828551471233368
5.5800000000000001,0.14931580424308777
5.585,0.13421833515167236
5.5899999999999999,0.11904875934123993
5.5949999999999998,0.11085093021392822
5.5999999999999996,0.10046541690826416
5.6050000000000004,0.095344781875610352
5.6100000000000003,0.090777084231376648
5.6150000000000002,0.089022122323513031
5.6200000000000001,0.086209379136562347
5.625,0.083108149468898773
5.6299999999999999,0.076208516955375671
5.6349999999999998,0.070751309394836426
5.6399999999999997,0.06325066089630127
5.6449999999999996,0.059620540589094162
5.6500000000000004,0.05630294606089592
5.6550000000000002,0.054572027176618576
5.6600000000000001,0.050292812287807465
5.665,0.045244298875331879
5.6699999999999999,0.03430585190653801
5.6749999999999998,0.025675296783447266
5.6799999999999997,0.012693405151367188
5.6849999999999996,0.0046398243866860867
5.6900000000000004,-0.0070679187774658203
5.6950000000000003,-0.015602311119437218
5.7000000000000002,-0.030988257378339767
5.7050000000000001,-0.043104689568281174
5.71,-0.062817931175231934
5.7149999999999999,-0.075895987451076508
5.7199999999999998,-0.093469619750976562
5.7249999999999996,-0.10291755199432373
5.7300000000000004,-0.11246164888143539
5.7350000000000003,-0.11520227044820786
5.7400000000000002,-0.11361559480428696
5.7450000000000001,-0.10897576808929443
5.75,-0.097364187240600586
5.7549999999999999,-0.08702675998210907
5.7599999999999998,-0.068467460572719574
5.7649999999999997,-0.054572027176618576
5.7699999999999996,-0.03214220330119133
5.7750000000000004,-0.016443729400634766
5.7800000000000002,0.0078372163698077202
5.7850000000000001,0.024112662300467491
5.79,0.047095417976379395
5.7949999999999999,0.060053270310163498
5.7999999999999998,0.073756381869316101
5.8049999999999997,0.078852973878383636
5.8099999999999996,0.082507133483886719
5.8150000000000004,0.084382295608520508
5.8200000000000003,0.08919040858745575
5.8250000000000002,0.093998514115810394
5.8300000000000001,0.10193189233541489
5.835,0.1061149463057518
5.8399999999999999,0.10912001132965088
5.8449999999999998,0.10907193273305893
5.8499999999999996,0.10753333568572998
5.8550000000000004,0.10659575462341309
5.8600000000000003,0.10609090328216553
5.8650000000000002,0.10592262446880341
5.8700000000000001,0.10428786277770996
5.875,0.10137896239757538
5.8799999999999999,0.093710027635097504
5.8849999999999998,0.08702675998210907
5.8899999999999997,0.076785489916801453
5.8949999999999996,0.071184039115905762
5.9000000000000004,0.065895125269889832
5.9050000000000002,0.064596936106681824
5.9100000000000001,0.065342187881469727
5.915,0.067000985145568848
5.9199999999999999,0.070054136216640472
5.9249999999999998,0.071761012077331543
5.9299999999999997,0.072746679186820984
5.9349999999999996,0.072121620178222656
5.9400000000000004,0.069717571139335632
5.9450000000000003,0.067890487611293793
5.9500000000000002,0.066351890563964844
5.9550000000000001,0.066616341471672058
5.96,0.068659782409667969
5.9649999999999999,0.070486865937709808
5.9699999999999998,0.072866879403591156
5.9749999999999996,0.073948703706264496
5.9800000000000004,0.074910327792167664
5.9850000000000003,0.075294971466064453
5.9900000000000002,0.075559422373771667
5.9950000000000001,0.075391136109828949
6,0.074405476450920105
6.0049999999999999,0.073443852365016937
6.0099999999999998,0.072386071085929871
6.0149999999999997,0.072530314326286316
6.0199999999999996,0.074309311807155609
6.0250000000000004,0.076184473931789398
6.0300000000000002,0.078732773661613464
6.0350000000000001,0.079574190080165863
6.04,0.079189538955688477
6.0449999999999999,0.07813175767660141
6.0499999999999998,0.076280638575553894
6.0549999999999997,0.075246892869472504
6.0599999999999996,0.073876582086086273
6.0650000000000004,0.07277071475982666
6.0700000000000003,0.070174336433410645
6.0750000000000002,0.067650079727172852
6.0800000000000001,0.062817931175231934
6.085,0.059356093406677246
6.0899999999999999,0.05505283921957016
6.0949999999999998,0.053754650056362152
6.0999999999999996,0.05522112175822258
6.1050000000000004,0.058322351425886154
6.1100000000000003,0.06394784152507782
6.1150000000000002,0.065967246890068054
6.1200000000000001,0.062385201454162598
6.125,0.054427783936262131
6.1299999999999999,0.035868488252162933
6.1349999999999998,0.022117298096418381
6.1399999999999997,0.0058418512344360352
6.1449999999999996,0.0007692973013035953
6.1500000000000004,0.0034618377685546875
6.1550000000000002,0.011250972747802734
6.1600000000000001,0.028752487152814865
6.165,0.042239230126142502
6.1699999999999999,0.061688028275966644
6.1749999999999998,0.071833133697509766
6.1799999999999997,0.079189538955688477
6.1849999999999996,0.078348122537136078
6.1900000000000004,0.073756381869316101
6.1950000000000003,0.075367093086242676
6.2000000000000002,0.09842197597026825
6.2050000000000001,0.131381556391716
6.21,0.19643525779247284
6.2149999999999999,0.23141424357891083
6.2199999999999998,0.22475501894950867
6.2249999999999996,0.15571057796478271
6.2300000000000004,-0.059043567627668381
6.2350000000000003,-0.25749823451042175
6.2400000000000002,-0.55918300151824951
6.2450000000000001,-0.70345026254653931
6.25,-0.75244486331939697
6.2549999999999999,-0.65890312194824219
6.2599999999999998,-0.37592193484306335
6.2649999999999997,-0.14970044791698456
6.2699999999999996,0.14116606116294861
6.2750000000000004,0.26269099116325378
6.2800000000000002,0.32428285479545593
6.2850000000000001,0.30512255430221558
6.29,0.2376888245344162
6.2949999999999999,0.19150695204734802
6.2999999999999998,0.14039675891399384
6.3049999999999997,0.11907279491424561
6.3099999999999996,0.099624000489711761
6.3150000000000004,0.091305971145629883
6.3200000000000003,0.082579255104064941
6.3250000000000002,0.078540444374084473
6.3300000000000001,0.074309311807155609
6.335,0.072241827845573425
6.3399999999999999,0.069741606712341309
6.3449999999999998,0.068323217332363129
6.3499999999999996,0.066039368510246277
6.3550000000000004,0.063803598284721375
6.3600000000000003,0.058178108185529709
6.3650000000000002,0.052841108292341232
6.3700000000000001,0.043801866471767426
6.375,0.038440823554992676
6.3799999999999999,0.032911501824855804
6.3849999999999998,0.030579566955566406
6.3899999999999997,0.026468634605407715
6.3949999999999996,0.021564364433288574
6.4000000000000004,0.0094960136339068413
6.4050000000000002,-0.0010818243026733398
6.4100000000000001,-0.018198689445853233
6.415,-0.029209256172180176
6.4199999999999999,-0.04490773007273674
6.4249999999999998,-0.055581729859113693
6.4299999999999997,-0.073323652148246765
6.4349999999999996,-0.086233422160148621
6.4400000000000004,-0.10515332221984863
6.4450000000000003,-0.11573116481304169
6.4500000000000002,-0.12587627768516541
6.4550000000000001,-0.12828032672405243
6.46,-0.1260685920715332
6.4649999999999999,-0.1192651242017746
6.4699999999999998,-0.11349539458751678
6.4749999999999996,-0.10392725467681885
6.4800000000000004,-0.096739135682582855
6.4850000000000003,-0.083276435732841492
6.4900000000000002,-0.071544647216796875
6.4950000000000001,-0.048994623124599457
6.5,-0.03122866153717041
6.5049999999999999,-0.0027887027245014906
6.5099999999999998,0.015626352280378342
6.5149999999999997,0.039859216660261154
6.5199999999999996,0.05293726921081543
6.5250000000000004,0.067650079727172852
6.5300000000000002,0.074453555047512054
6.5350000000000001,0.080704092979431152
6.54,0.082603298127651215
6.5449999999999999,0.082963906228542328
6.5499999999999998,0.082314811646938324
6.5549999999999997,0.081593595445156097
6.5599999999999996,0.081930160522460938
6.5650000000000004,0.083973608911037445
6.5700000000000003,0.08594493567943573
6.5750000000000002,0.088565349578857422
6.5800000000000001,0.089358687400817871
6.585,0.088613435626029968
6.5899999999999999,0.086954638361930847
6.5949999999999998,0.083228349685668945
6.5999999999999996,0.080223284661769867
6.6050000000000004,0.07493436336517334
6.6100000000000003,0.070919595658779144
6.6150000000000002,0.064404606819152832
6.6200000000000001,0.060269635170698166
6.625,0.056879919022321701
6.6299999999999999,0.054067175835371017
6.6349999999999998,0.053850810974836349
6.6399999999999997,0.054355662316083908
6.6449999999999996,0.054523944854736328
6.6500000000000004,0.053754650056362152
6.6550000000000002,0.05180736631155014
6.6600000000000001,0.050653420388698578
6.665,0.050268769264221191
6.6699999999999999,0.050941906869411469
6.6749999999999998,0.052528582513332367
6.6799999999999997,0.053201716393232346
6.6849999999999996,0.05276898667216301
6.6900000000000004,0.051542919129133224
6.6950000000000003,0.049259066581726074
6.7000000000000002,0.048129163682460785
6.7050000000000001,0.048008959740400314
6.71,0.048970580101013184
6.7149999999999999,0.051086150109767914
6.7199999999999998,0.052288174629211426
6.7249999999999996,0.052985351532697678
6.7300000000000004,0.053297877311706543
6.7350000000000003,0.053369998931884766
6.7400000000000002,0.053466163575649261
6.7450000000000001,0.053297877311706543
6.75,0.052624743431806564
6.7549999999999999,0.050989985466003418
6.7599999999999998,0.050076447427272797
6.7649999999999997,0.050292812287807465
6.7699999999999996,0.051735244691371918
6.7750000000000004,0.054908595979213715
6.7800000000000002,0.05659143254160881
6.7850000000000001,0.057096283882856369
6.79,0.056038498878479004
6.7949999999999999,0.053081512451171875
6.7999999999999998,0.050701498985290527
6.8049999999999997,0.046662688255310059
6.8099999999999996,0.043417215347290039
6.8150000000000004,0.037887893617153168
6.8200000000000003,0.034498177468776703
6.8250000000000002,0.03197392076253891
6.8300000000000001,0.032935541123151779
6.835,0.037791728973388672
6.8399999999999999,0.041421853005886078
6.8449999999999998,0.042647920548915863
6.8499999999999996,0.038344662636518478
6.8550000000000004,0.023343365639448166
6.8600000000000003,0.0095921754837036133
6.8650000000000002,-0.010169148445129395
6.8700000000000001,-0.018511217087507248
6.875,-0.019088190048933029
6.8799999999999999,-0.011250972747802734
6.8849999999999998,0.0090632839128375053
6.8899999999999997,0.024641554802656174
6.8949999999999996,0.044523082673549652
6.9000000000000004,0.052528582513332367
6.9050000000000002,0.054836474359035492
6.9100000000000001,0.051326554268598557
6.915,0.046133797615766525
6.9199999999999999,0.049715839326381683
6.9249999999999998,0.077626906335353851
6.9299999999999997,0.11380791664123535
6.9349999999999996,0.18261194229125977
6.9400000000000004,0.21946609020233154
6.9450000000000003,0.21477818489074707
6.9500000000000002,0.1460222452878952
6.9550000000000001,-0.072049498558044434
6.96,-0.27637004852294922
6.9649999999999999,-0.59190213680267334
6.9699999999999998,-0.74653089046478271
6.9749999999999996,-0.80668032169342041
6.9800000000000004,-0.71453297138214111
6.9850000000000003,-0.42301735281944275
6.9900000000000002,-0.18619398772716522
6.9950000000000001,0.12087583541870117
7,0.2492523193359375
7.0049999999999999,0.3121904730796814
7.0099999999999998,0.28901538252830505
7.0149999999999997,0.21338383853435516
7.0199999999999996,0.16337952017784119
7.0250000000000004,0.11176447570323944
7.0300000000000002,0.093301340937614441
7.0350000000000001,0.080054998397827148
7.04,0.07522284984588623
7.0449999999999999,0.068635746836662292
7.0499999999999998,0.063803598284721375
7.0549999999999997,0.056014459580183029
7.0599999999999996,0.050917863845825195
7.0650000000000004,0.044330757111310959
7.0700000000000003,0.040989123284816742
7.0750000000000002,0.037527285516262054
7.0800000000000001,0.035748284310102463
7.085,0.032695136964321136
7.0899999999999999,0.029834311455488205
7.0949999999999998,0.024184783920645714
7.0999999999999996,0.019737284630537033
7.1050000000000004,0.01247704029083252
7.1100000000000003,0.0073564052581787109
7.1150000000000002,-0.0010577838402241468
7.1200000000000001,-0.0074044866487383842
7.125,-0.018126567825675011
7.1299999999999999,-0.025963783264160156
7.1349999999999998,-0.038585066795349121
7.1399999999999997,-0.047768555581569672
7.1449999999999996,-0.06320258229970932
7.1500000000000004,-0.07488628476858139
7.1550000000000002,-0.09443124383687973
7.1600000000000001,-0.10827859491109848
7.165,-0.12852072715759277
7.1699999999999999,-0.14027655124664307
7.1749999999999998,-0.15299400687217712
7.1799999999999997,-0.15732130408287048
7.1849999999999996,-0.15746554732322693
7.1900000000000004,-0.15412390232086182
7.1950000000000003,-0.14575779438018799
7.2000000000000002,-0.13868987560272217
7.2050000000000001,-0.12561182677745819
7.21,-0.11448105424642563
7.2149999999999999,-0.093181133270263672
7.2199999999999998,-0.076232552528381348
7.2249999999999996,-0.048802297562360764
7.2300000000000004,-0.030844014137983322
7.2350000000000003,-0.006611148826777935
7.2400000000000002,0.0072362027131021023
7.2450000000000001,0.024737715721130371
7.25,0.034546256065368652
7.2549999999999999,0.046638648957014084
7.2599999999999998,0.052865147590637207
7.2649999999999997,0.059356093406677246
7.2699999999999996,0.062144797295331955
7.2750000000000004,0.065149866044521332
7.2800000000000002,0.067049071192741394
7.2850000000000001,0.070198379456996918
7.29,0.072121620178222656
7.2949999999999999,0.073636174201965332
7.2999999999999998,0.073155365884304047
7.3049999999999997,0.070462822914123535
7.3099999999999996,0.068082809448242188
7.3150000000000004,0.065197944641113281
7.3200000000000003,0.064164206385612488
7.3250000000000002,0.063442990183830261
7.3300000000000001,0.062721773982048035
7.335,0.059933066368103027
7.3399999999999999,0.05659143254160881
7.3449999999999998,0.050004325807094574
7.3499999999999996,0.045412581413984299
7.3550000000000004,0.039835177361965179
7.3600000000000003,0.037695568054914474
7.3650000000000002,0.037214756011962891
7.3700000000000001,0.038344662636518478
7.375,0.040844880044460297
7.3799999999999999,0.042119026184082031
7.3849999999999998,0.04245559498667717
7.3899999999999997,0.041590135544538498
7.3949999999999996,0.039642851799726486
7.4000000000000004,0.038705270737409592
7.4050000000000002,0.038849513977766037
7.4100000000000001,0.040099620819091797
7.415,0.043032567948102951
7.4199999999999999,0.044979851692914963
7.4249999999999998,0.047023296356201172
7.4299999999999997,0.047696433961391449
7.4349999999999996,0.048105120658874512
7.4400000000000004,0.048465728759765625
7.4450000000000003,0.049427352845668793
7.4500000000000002,0.050148569047451019
7.4550000000000001,0.05043705552816391
7.46,0.049643717706203461
7.4649999999999999,0.047119460999965668
7.4699999999999998,0.045268338173627853
7.4749999999999996,0.043922066688537598
7.4800000000000004,0.044523082673549652
7.4850000000000003,0.04735986515879631
7.4900000000000002,0.049667757004499435
7.4950000000000001,0.05214393138885498
7.5,0.052793025970458984
7.5049999999999999,0.05276898667216301
7.5099999999999998,0.052793025970458984
7.5149999999999997,0.053273838013410568
7.5199999999999996,0.053490202873945236
7.5250000000000004,0.052288174629211426
7.5300000000000002,0.049812000244855881
7.5350000000000001,0.0438259057700634
7.54,0.039162039756774902
7.5449999999999999,0.033560596406459808
7.5499999999999998,0.031997960060834885
7.5549999999999997,0.033825039863586426
7.5599999999999996,0.037214756011962891
7.5650000000000004,0.042551755905151367
7.5700000000000003,0.043753784149885178
7.5750000000000002,0.03812829777598381
7.5800000000000001,0.028704404830932617
7.585,0.0089671220630407333
7.5899999999999999,-0.0038945674896240234
7.5949999999999998,-0.014640688896179199
7.5999999999999996,-0.012693405151367188
7.6050000000000004,0.0043272972106933594
7.6100000000000003,0.021949013695120811
7.6150000000000002,0.049114823341369629
7.6200000000000001,0.062601566314697266
7.625,0.070583030581474304
7.6299999999999999,0.06786644458770752
7.6349999999999998,0.058105986565351486
7.6399999999999997,0.054451823234558105
7.6449999999999996,0.066375933587551117
7.6500000000000004,0.091426178812980652
7.6550000000000002,0.15244106948375702
7.6600000000000001,0.21559557318687439
7.665,0.23276051878929138
7.6699999999999999,0.20802280306816101
7.6749999999999998,0.062938138842582703
7.6799999999999997,-0.20706117153167725
7.6849999999999996,-0.42051714658737183
7.6900000000000004,-0.69313687086105347
7.6950000000000003,-0.78388988971710205
7.7000000000000002,-0.72525501251220703
7.7050000000000001,-0.56468826532363892
7.71,-0.22449056804180145
7.7149999999999999,0.001466472982428968
7.7199999999999998,0.24514138698577881
7.7249999999999996,0.32120567560195923
7.7300000000000004,0.32428285479545593
7.7350000000000003,0.28259655833244324
7.7400000000000002,0.20588319003582001
7.7450000000000001,0.16323527693748474
7.75,0.13188640773296356
7.7549999999999999,0.10217230021953583
7.7599999999999998,0.089767381548881531
7.7649999999999997,0.077867314219474792
7.7699999999999996,0.072169706225395203
7.7750000000000004,0.070871517062187195
7.7800000000000002,0.070438787341117859
7.7850000000000001,0.06890019029378891
7.79,0.064043998718261719
7.7949999999999999,0.058971446007490158
7.7999999999999998,0.050340890884399414
7.8049999999999997,0.045220255851745605
7.8099999999999996,0.039690934121608734
7.8150000000000004,0.037118595093488693
7.8200000000000003,0.033151905983686447
7.8250000000000002,0.029449662193655968
7.8300000000000001,0.022093256935477257
7.835,0.016563933342695236
7.8399999999999999,0.0085824728012084961
7.8449999999999998,0.0035099189262837172
7.8499999999999996,-0.0049523515626788139
7.8550000000000004,-0.012284716591238976
7.8600000000000003,-0.026733081787824631
7.8650000000000002,-0.038488905876874924
7.8700000000000001,-0.058081947267055511
7.875,-0.071785055100917816
7.8799999999999999,-0.092652246356010437
7.8849999999999998,-0.1063072681427002
7.8899999999999997,-0.12489061057567596
7.8949999999999996,-0.13477127254009247
7.9000000000000004,-0.14381051063537598
7.9050000000000002,-0.14556547999382019
7.9100000000000001,-0.14253637194633484
7.915,-0.13777634501457214
7.9199999999999999,-0.12803992629051208
7.9249999999999998,-0.11989017575979233
7.9299999999999997,-0.10421574115753174
7.9349999999999996,-0.090825162827968597
7.9400000000000004,-0.066303811967372894
7.9450000000000003,-0.047936838120222092
7.9500000000000002,-0.020097892731428146
7.9550000000000001,-0.0030291080474853516
7.96,0.018607378005981445
7.9649999999999999,0.030243000015616417
7.9699999999999998,0.044643282890319824
7.9749999999999996,0.052985351532697678
7.9800000000000004,0.064380571246147156
7.9850000000000003,0.071160003542900085
7.9900000000000002,0.079333782196044922
7.9950000000000001,0.083036027848720551
8,0.085896849632263184
8.0050000000000008,0.086377665400505066
8.0099999999999998,0.085896849632263184
8.0150000000000006,0.085223719477653503
8.0199999999999996,0.084021687507629395
8.0250000000000004,0.083252392709255219
8.0299999999999994,0.082435011863708496
8.0350000000000001,0.082074403762817383
8.0399999999999991,0.08132915198802948
8.0449999999999999,0.080103084444999695
8.0500000000000007,0.076208516955375671
8.0549999999999997,0.072073541581630707
8.0600000000000005,0.06428440660238266
8.0649999999999995,0.058947406709194183
8.0700000000000003,0.052264135330915451
8.0749999999999993,0.049090784043073654
8.0800000000000001,0.046085715293884277
8.0850000000000009,0.044763486832380295
8.0899999999999999,0.043008528649806976
8.0950000000000006,0.041878622025251389
8.0999999999999996,0.040844880044460297
8.1050000000000004,0.041157405823469162
8.1099999999999994,0.043777823448181152
8.1150000000000002,0.046830974519252777
8.1199999999999992,0.051927566528320312
8.125,0.054596066474914551
8.1300000000000008,0.0561346635222435
8.1349999999999998,0.055485568940639496
8.1400000000000006,0.053273838013410568
8.1449999999999996,0.052119892090559006
8.1500000000000004,0.05214393138885498
8.1549999999999994,0.053297877311706543
8.1600000000000001,0.055605769157409668
8.1649999999999991,0.056615471839904785
8.1699999999999999,0.05647122859954834
8.1750000000000007,0.05522112175822258
8.1799999999999997,0.052336256951093674
8.1850000000000005,0.050292812287807465
8.1899999999999995,0.048032999038696289
8.1950000000000003,0.047480069100856781
8.1999999999999993,0.048297446221113205
8.2050000000000001,0.049763917922973633
8.2100000000000009,0.052456460893154144
8.2149999999999999,0.053850810974836349
8.2200000000000006,0.054379701614379883
8.2249999999999996,0.053466163575649261
8.2300000000000004,0.050292812287807465
8.2349999999999994,0.047119460999965668
8.2400000000000002,0.041253566741943359
8.2449999999999992,0.037214756011962891
8.25,0.032382607460021973
8.2550000000000008,0.030627649277448654
8.2599999999999998,0.029786229133605957
8.2650000000000006,0.028920769691467285
8.2699999999999996,0.023800134658813477
8.2750000000000004,0.016684135422110558
8.2799999999999994,0.0018511216621845961
8.2850000000000001,-0.0078852977603673935
8.2899999999999991,-0.016203325241804123
8.2949999999999999,-0.015241703018546104
8.3000000000000007,-0.0042792162857949734
8.3049999999999997,0.0071640810929238796
8.3100000000000005,0.02507428452372551
8.3149999999999995,0.034714542329311371
8.3200000000000003,0.042431555688381195
8.3249999999999993,0.042431555688381195
8.3300000000000001,0.036637783050537109
8.3350000000000009,0.032550893723964691
8.3399999999999999,0.036854147911071777
8.3450000000000006,0.053706567734479904
8.3499999999999996,0.10481675714254379
8.3550000000000004,0.14955620467662811
8.3599999999999994,0.20032982528209686
8.3650000000000002,0.19571404159069061
8.3699999999999992,0.088517270982265472
8.375,-0.057577095925807953
8.3800000000000008,-0.35315555334091187
8.3849999999999998,-0.55264395475387573
8.3900000000000006,-0.75302183628082275
8.3949999999999996,-0.77410542964935303
8.4000000000000004,-0.61918818950653076
8.4049999999999994,-0.42335391044616699
8.4100000000000001,-0.092411838471889496
8.4149999999999991,0.092339716851711273
8.4199999999999999,0.25326710939407349
8.4250000000000007,0.28028866648674011
8.4299999999999997,0.2391793429851532
8.4350000000000005,0.18840572237968445
8.4399999999999995,0.11770248413085938
8.4450000000000003,0.084430381655693054
8.4499999999999993,0.054764352738857269
8.4550000000000001,0.043801866471767426
8.4600000000000009,0.033272109925746918
8.4649999999999999,0.027838945388793945
8.4700000000000006,0.020362338051199913
8.4749999999999996,0.01538594625890255
8.4800000000000004,0.0078612565994262695
8.4849999999999994,0.0030771892052143812
8.4900000000000002,-0.0031733512878417969
8.4949999999999992,-0.006707310676574707
8.5,-0.011755824089050293
8.5050000000000008,-0.015578269958496094
8.5099999999999998,-0.022477906197309494
8.5150000000000006,-0.027718743309378624
8.5199999999999996,-0.035652123391628265
8.5250000000000004,-0.040580432862043381
8.5299999999999994,-0.047600269317626953
8.5350000000000001,-0.052552621811628342
8.5399999999999991,-0.061495702713727951
8.5449999999999999,-0.068779990077018738
8.5500000000000007,-0.081809960305690765
8.5549999999999997,-0.091810822486877441
8.5600000000000005,-0.10887961089611053
8.5649999999999995,-0.12166917324066162
8.5700000000000003,-0.14253637194633484
8.5749999999999993,-0.15688857436180115
8.5800000000000001,-0.17720282077789307
8.5850000000000009,-0.18886248767375946
8.5899999999999999,-0.202445387840271
8.5950000000000006,-0.20879209041595459
8.5999999999999996,-0.2143695056438446
8.6050000000000004,-0.21557152271270752
8.6099999999999994,-0.21335980296134949
8.6150000000000002,-0.20898441970348358
8.6199999999999992,-0.19785365462303162
8.625,-0.18739601969718933
8.6300000000000008,-0.16780297458171844
8.6349999999999998,-0.15284976363182068
8.6400000000000006,-0.12929002940654755
8.6449999999999996,-0.11388003826141357
8.6500000000000004,-0.092532038688659668
8.6549999999999994,-0.07955014705657959
8.6600000000000001,-0.061327420175075531
8.6649999999999991,-0.049595635384321213
8.6699999999999999,-0.033127866685390472
8.6750000000000007,-0.020121932029724121
8.6799999999999997,-0.014448365196585655
8.6850000000000005,-0.011202892288565636
8.6899999999999995,-0.0088950004428625107
8.6950000000000003,-0.0074285268783569336
8.6999999999999993,-0.0039907298050820827
8.7050000000000001,-0.00067313516046851873
8.7100000000000009,-0.00024040541029535234
8.7149999999999999,-0.0034618377685546875
8.7200000000000006,-0.0071881217882037163
8.7249999999999996,-0.010673999786376953
8.7300000000000004,-0.013102094642817974
8.7349999999999994,-0.012212594971060753
8.7400000000000002,-0.01137117575854063
8.7449999999999992,-0.01245300006121397
8.75,-0.01538594625890255
8.7550000000000008,-0.022309621796011925
8.7599999999999998,-0.027550458908081055
8.7650000000000006,-0.034786663949489594
8.7699999999999996,-0.038561027497053146
8.7750000000000004,-0.042215190827846527
8.7799999999999994,-0.043393176048994064
8.7850000000000001,-0.044210553169250488
8.7899999999999991,-0.044955812394618988
8.7949999999999999,-0.047624312341213226
8.8000000000000007,-0.050340890884399414
8.8049999999999997,-0.05430757999420166
8.8100000000000005,-0.055653851479291916
8.8149999999999995,-0.054692231118679047
8.8200000000000003,-0.052384339272975922
8.8249999999999993,-0.048129163682460785
8.8300000000000001,-0.045797228813171387
8.8350000000000009,-0.044114392250776291
8.8399999999999999,-0.044378839433193207
8.8450000000000006,-0.046590566635131836
8.8499999999999996,-0.048898458480834961
8.8550000000000004,-0.052480500191450119
8.8599999999999994,-0.054091215133666992
8.8650000000000002,-0.054163336753845215
8.8699999999999992,-0.052528582513332367
8.875,-0.04860997200012207
8.8800000000000008,-0.046013593673706055
8.8849999999999998,-0.043248932808637619
8.8900000000000006,-0.04228731244802475
8.8949999999999996,-0.041518013924360275
8.9000000000000004,-0.041181445121765137
8.9049999999999994,-0.040892958641052246
8.9100000000000001,-0.041253566741943359
8.9149999999999991,-0.043417215347290039
8.9199999999999999,-0.046061675995588303
8.9250000000000007,-0.051206350326538086
8.9299999999999997,-0.054812431335449219
8.9350000000000005,-0.059452258050441742
8.9399999999999995,-0.061688028275966644
8.9450000000000003,-0.063442990183830261
8.9499999999999993,-0.063563190400600433
8.9550000000000001,-0.0622890405356884
8.9600000000000009,-0.06091872975230217
8.9649999999999999,-0.059788823127746582
8.9700000000000006,-0.061255298554897308
8.9749999999999996,-0.069405041635036469
8.9800000000000004,-0.079093381762504578
8.9849999999999994,-0.096979543566703796
8.9900000000000002,-0.10767757892608643
8.9949999999999992,-0.1153465136885643
9,-0.11250972747802734
9.0050000000000008,-0.096642971038818359
9.0099999999999998,-0.080944500863552094
9.0150000000000006,-0.056735675781965256
9.0199999999999996,-0.044354796409606934
9.0250000000000004,-0.036445461213588715
9.0299999999999994,-0.038705270737409592
9.0350000000000001,-0.047912798821926117
9.0399999999999991,-0.050989985466003418
9.0449999999999999,-0.036445461213588715
9.0500000000000007,-0.0082218647003173828
9.0549999999999997,0.057192444801330566
9.0600000000000005,0.10142704099416733
9.0649999999999995,0.12549161911010742
9.0700000000000003,0.085632406175136566
9.0749999999999993,-0.086377665400505066
9.0800000000000001,-0.26865303516387939
9.0850000000000009,-0.58142048120498657
9.0899999999999999,-0.75886368751525879
9.0950000000000006,-0.88204741477966309
9.0999999999999996,-0.8378368616104126
9.1050000000000004,-0.60007596015930176
9.1099999999999994,-0.37604212760925293
9.1150000000000002,-0.051879487931728363
9.1199999999999992,0.10363876819610596
9.125,0.20982584357261658
9.1300000000000008,0.20737370848655701
9.1349999999999998,0.14417111873626709
9.1400000000000006,0.092051230370998383
9.1449999999999996,0.02969006821513176
9.1500000000000004,0.0033897161483764648
9.1549999999999994,-0.018318891525268555
9.1600000000000001,-0.025843581184744835
9.1649999999999991,-0.032743215560913086
9.1699999999999999,-0.036277174949645996
9.1750000000000007,-0.041397809982299805
9.1799999999999997,-0.044979851692914963
9.1850000000000005,-0.050244729965925217
9.1899999999999995,-0.053369998931884766
9.1950000000000003,-0.05755305290222168
9.1999999999999993,-0.060389839112758636
9.2050000000000001,-0.06531815230846405
9.2100000000000009,-0.069044433534145355
9.2149999999999999,-0.074501633644104004
9.2200000000000006,-0.077650949358940125
9.2249999999999996,-0.08200228214263916
9.2300000000000004,-0.085584327578544617
9.2349999999999994,-0.093758106231689453
9.2400000000000002,-0.10152320563793182
9.2449999999999992,-0.11563500016927719
9.25,-0.12563586235046387
9.2550000000000008,-0.14001211524009705
9.2599999999999998,-0.14912347495555878
9.2650000000000006,-0.16318719089031219
9.2699999999999996,-0.17352461814880371
9.2750000000000004,-0.19100210070610046
9.2799999999999994,-0.20345509052276611
9.2850000000000001,-0.22162973880767822
9.2899999999999991,-0.23230373859405518
9.2949999999999999,-0.24451634287834167
9.3000000000000007,-0.24968504905700684
9.3049999999999997,-0.25285840034484863
9.3100000000000005,-0.25218528509140015
9.3149999999999995,-0.24737715721130371
9.3200000000000003,-0.24163147807121277
9.3249999999999993,-0.22886595129966736
9.3300000000000001,-0.21749477088451385
9.3350000000000009,-0.19686798751354218
9.3399999999999999,-0.1814579963684082
9.3450000000000006,-0.15708088874816895
9.3499999999999996,-0.14034867286682129
9.3550000000000004,-0.11498590558767319
9.3599999999999994,-0.098397932946681976
9.3650000000000002,-0.075944066047668457
9.3699999999999992,-0.063971877098083496
9.375,-0.05185544490814209
9.3800000000000008,-0.047143500298261642
9.3849999999999998,-0.04245559498667717
9.3900000000000006,-0.03921012207865715
9.3949999999999996,-0.032935541123151779
9.4000000000000004,-0.028584202751517296
9.4049999999999994,-0.024353068321943283
9.4100000000000001,-0.02428094670176506
9.4149999999999991,-0.028055310249328613
9.4199999999999999,-0.031685434281826019
9.4250000000000007,-0.035363636910915375
9.4299999999999997,-0.035387676209211349
9.4350000000000005,-0.032334528863430023
9.4399999999999995,-0.030026635155081749
9.4450000000000003,-0.029738148674368858
9.4499999999999993,-0.032887458801269531
9.4550000000000001,-0.041806500405073166
9.4600000000000009,-0.04860997200012207
9.4649999999999999,-0.056086581200361252
9.4700000000000006,-0.057865582406520844
9.4749999999999996,-0.056014459580183029
9.4800000000000004,-0.053369998931884766
9.4849999999999994,-0.05077362060546875
9.4900000000000002,-0.051374636590480804
9.4949999999999992,-0.055774055421352386
9.5,-0.059548418968915939
9.5050000000000008,-0.063010260462760925
9.5099999999999998,-0.062361162155866623
9.5150000000000006,-0.056879919022321701
9.5199999999999996,-0.051783323287963867
9.5250000000000004,-0.045628946274518967
9.5299999999999994,-0.044162474572658539
9.5350000000000001,-0.046205919235944748
9.5399999999999991,-0.049138866364955902
9.5449999999999999,-0.052696865051984787
9.5500000000000007,-0.053297877311706543
9.5549999999999997,-0.051639080047607422
9.5600000000000005,-0.049980282783508301
9.5649999999999995,-0.049018662422895432
9.5700000000000003,-0.050076447427272797
9.5749999999999993,-0.053321920335292816
9.5800000000000001,-0.055269204080104828
9.5850000000000009,-0.055533647537231445
9.5899999999999999,-0.053538285195827484
9.5950000000000006,-0.048585932701826096
9.5999999999999996,-0.045460663735866547
9.6050000000000004,-0.043224893510341644
9.6099999999999994,-0.043922066688537598
9.6150000000000002,-0.047624312341213226
9.6199999999999992,-0.051038067787885666
9.625,-0.056375067681074142
9.6300000000000008,-0.059692662209272385
9.6349999999999998,-0.064019963145256042
9.6400000000000006,-0.066087447106838226
9.6449999999999996,-0.067193314433097839
9.6500000000000004,-0.06639997661113739
9.6549999999999994,-0.064043998718261719
9.6600000000000001,-0.06320258229970932
9.6649999999999991,-0.066279768943786621
9.6699999999999999,-0.072410106658935547
9.6750000000000007,-0.086882516741752625
9.6799999999999997,-0.097700759768486023
9.6850000000000005,-0.11000951379537582
9.6899999999999995,-0.11267801374197006
9.6950000000000003,-0.10633131116628647
9.6999999999999993,-0.096065998077392578
9.7050000000000001,-0.075823865830898285
9.7100000000000009,-0.062192879617214203
9.7149999999999999,-0.046422284096479416
9.7200000000000006,-0.041109323501586914
9.7249999999999996,-0.041758418083190918
9.7300000000000004,-0.045917432755231857
9.7349999999999994,-0.048850379884243011
9.7400000000000002,-0.041109323501586914
9.7449999999999992,-0.0042551755905151367
9.75,0.037022434175014496
9.7550000000000008,0.10479271411895752
9.7599999999999998,0.13111710548400879
9.7650000000000006,0.094647608697414398
9.7699999999999996,-0.0013222297420725226
9.7750000000000004,-0.25240164995193481
9.7799999999999994,-0.4621313214302063
9.7850000000000001,-0.74917536973953247
9.7899999999999991,-0.86295926570892334
9.7949999999999999,-0.85026586055755615
9.8000000000000007,-0.71905255317687988
9.8049999999999997,-0.4059966504573822
9.8100000000000005,-0.18232345581054688
9.8149999999999995,0.078564487397670746
9.8200000000000003,0.17335633933544159
9.8249999999999993,0.20304641127586365
9.8300000000000001,0.17354866862297058
9.8350000000000009,0.10534565150737762
9.8399999999999999,0.06353914737701416
9.8450000000000006,0.018078487366437912
9.8499999999999996,-0.002067486522719264
9.8550000000000004,-0.022189419716596603
9.8599999999999994,-0.030387243255972862
9.8650000000000002,-0.035748284310102463
9.8699999999999992,-0.035700201988220215
9.875,-0.033921204507350922
9.8800000000000008,-0.033921204507350922
9.8849999999999998,-0.037984054535627365
9.8900000000000006,-0.043224893510341644
9.8949999999999996,-0.052865147590637207
9.9000000000000004,-0.059139728546142578
9.9049999999999994,-0.06678462028503418
9.9100000000000001,-0.070486865937709808
9.9149999999999991,-0.074141025543212891
9.9199999999999999,-0.075583457946777344
9.9250000000000007,-0.076977811753749847
9.9299999999999997,-0.07813175767660141
9.9350000000000005,-0.081978246569633484
9.9399999999999995,-0.087098881602287292
9.9450000000000003,-0.099624000489711761
9.9499999999999993,-0.11097113788127899
9.9550000000000001,-0.1306363046169281
9.9600000000000009,-0.14407496154308319
9.9649999999999999,-0.16277849674224854
9.9700000000000006,-0.17390927672386169
9.9749999999999996,-0.18924713134765625
9.9800000000000004,-0.19919991493225098
9.9849999999999994,-0.21427333354949951
9.9900000000000002,-0.22393763065338135
9.9949999999999992,-0.23574154078960419
10,-0.24026116728782654
10.005000000000001,-0.24014095962047577
10.01,-0.2353568971157074
10.015000000000001,-0.22266349196434021
10.02,-0.21189332008361816
10.025,-0.19405524432659149
10.029999999999999,-0.1746545284986496
10.035,-0.16049465537071228
10.039999999999999,-0.13722340762615204
10.045,-0.12073159217834473
10.050000000000001,-0.095993876457214355
10.055,-0.080535814166069031
10.06,-0.060197513550519943
10.065,-0.049090784043073654
10.07,-0.036733947694301605
10.074999999999999,-0.031541191041469574
10.08,-0.027574500069022179
10.085000000000001,-0.02644459530711174
10.09,-0.024857919663190842
10.095000000000001,-0.022934675216674805
10.1,-0.018583338707685471
10.105,-0.015337864868342876
10.109999999999999,-0.01139521598815918
10.115,-0.0099527835845947266
10.119999999999999,-0.0096162166446447372
10.125,-0.01108268927782774
10.130000000000001,-0.014881094917654991
10.135,-0.018655460327863693
10.140000000000001,-0.025555094704031944
10.145,-0.030387243255972862
10.15,-0.036902230232954025
10.154999999999999,-0.04046022891998291
10.16,-0.044835608452558517
10.164999999999999,-0.04735986515879631
10.17,-0.050749581307172775
10.175000000000001,-0.052504539489746094
10.18,-0.053658485412597656
10.185,-0.053297877311706543
10.19,-0.051542919129133224
10.195,-0.050124526023864746
10.199999999999999,-0.048513811081647873
10.205,-0.04798492044210434
10.210000000000001,-0.047888755798339844
10.215,-0.048081081360578537
10.220000000000001,-0.04832148551940918
10.225,-0.048225324600934982
10.23,-0.047311782836914062
10.234999999999999,-0.046133797615766525
10.24,-0.043777823448181152
10.244999999999999,-0.042383473366498947
10.25,-0.04154205322265625
10.255000000000001,-0.041998825967311859
10.26,-0.043393176048994064
10.265000000000001,-0.0438259057700634
10.27,-0.042407512664794922
10.275,-0.040075581520795822
10.279999999999999,-0.035820405930280685
10.285,-0.03368079662322998
10.289999999999999,-0.032959580421447754
10.295,-0.03430585190653801
10.300000000000001,-0.038176380097866058
10.305,-0.041181445121765137
10.31,-0.045124094933271408
10.315,-0.046879053115844727
10.32,-0.047576230019330978
10.324999999999999,-0.046590566635131836
10.33,-0.043561458587646484
10.335000000000001,-0.041614174842834473
10.34,-0.041950743645429611
10.345000000000001,-0.046085715293884277
10.35,-0.059139728546142578
10.355,-0.070871517062187195
10.359999999999999,-0.087291203439235687
10.365,-0.093493662774562836
10.369999999999999,-0.091065570712089539
10.375,-0.081473395228385925
10.380000000000001,-0.058947406709194183
10.385,-0.042119026184082031
10.390000000000001,-0.020386379212141037
10.395,-0.011010567657649517
10.4,-0.0068515539169311523
10.404999999999999,-0.0098566217347979546
10.41,-0.016780298203229904
10.414999999999999,-0.016419690102338791
10.42,0.00430325698107481
10.425000000000001,0.035748284310102463
10.43,0.10169148445129395
10.435,0.14207959175109863
10.44,0.15390753746032715
10.445,0.10332624614238739
10.449999999999999,-0.082074403762817383
10.455,-0.26663362979888916
10.460000000000001,-0.56668365001678467
10.465,-0.72496652603149414
10.470000000000001,-0.81153655052185059
10.475,-0.74571353197097778
10.48,-0.49239835143089294
10.484999999999999,-0.27237933874130249
10.49,0.028704404830932617
10.494999999999999,0.16436517238616943
10.5,0.24643957614898682
10.505000000000001,0.23603002727031708
10.51,0.17359673976898193
10.515000000000001,0.12760719656944275
10.52,0.076232552528381348
10.525,0.055293243378400803
10.529999999999999,0.036349296569824219
10.535,0.027478337287902832
10.539999999999999,0.016275446861982346
10.545,0.010097026824951172
10.550000000000001,0.0031252703629434109
10.555,-0.00012020270514767617
10.56,-0.0033656756859272718
10.565,-0.004567702766507864
10.57,-0.0053610405884683132
10.574999999999999,-0.0058658919297158718
10.58,-0.0083901491016149521
10.585000000000001,-0.012044310569763184
10.59,-0.020338296890258789
10.595000000000001,-0.026540756225585938
10.6,-0.034233730286359787
10.605,-0.037599407136440277
10.609999999999999,-0.041157405823469162
10.615,-0.044330757111310959
10.619999999999999,-0.053177677094936371
10.625,-0.0622890405356884
10.630000000000001,-0.079478025436401367
10.635,-0.091955065727233887
10.640000000000001,-0.11051436513662338
10.645,-0.12260675430297852
10.65,-0.14075736701488495
10.654999999999999,-0.15280167758464813
10.66,-0.16941368579864502
10.664999999999999,-0.17821252346038818
10.67,-0.18636226654052734
10.675000000000001,-0.18821339309215546
10.68,-0.18636226654052734
10.685,-0.18261194229125977
10.69,-0.17383715510368347
10.695,-0.16587972640991211
10.699999999999999,-0.1507822722196579
10.705,-0.13878604769706726
10.710000000000001,-0.11856794357299805
10.715,-0.10402341932058334
10.720000000000001,-0.081112787127494812
10.725,-0.065390273928642273
10.73,-0.041878622025251389
10.734999999999999,-0.026853283867239952
10.74,-0.006707310676574707
10.744999999999999,0.004399418830871582
10.75,0.016948580741882324
10.755000000000001,0.022862553596496582
10.76,0.029762189835309982
10.765000000000001,0.034089487046003342
10.77,0.040965080261230469
10.775,0.045148134231567383
10.779999999999999,0.048537850379943848
10.785,0.047912798821926117
10.789999999999999,0.04336913675069809
10.795,0.039739012718200684
10.800000000000001,0.036974351853132248
10.805,0.037911932915449142
10.81,0.041734378784894943
10.815,0.043585501611232758
10.82,0.041782461106777191
10.824999999999999,0.037022434175014496
10.83,0.026757121086120605
10.835000000000001,0.020025771111249924
10.84,0.013054013252258301
10.845000000000001,0.010938446037471294
10.85,0.01031339168548584
10.855,0.010457634925842285
10.859999999999999,0.01028935145586729
10.865,0.0098566217347979546
10.869999999999999,0.009351770393550396
10.875,0.0094960136339068413
10.880000000000001,0.010722081176936626
10.885,0.012068351730704308
10.890000000000001,0.014232000336050987
10.895,0.015145540237426758
10.9,0.014977256767451763
10.904999999999999,0.013823310844600201
10.91,0.011779865249991417
10.914999999999999,0.011467337608337402
10.92,0.014256040565669537
10.925000000000001,0.018318891525268555
10.93,0.025410851463675499
10.935,0.02889673039317131
10.94,0.030122797936201096
10.945,0.028391879051923752
10.949999999999999,0.024425189942121506
10.955,0.022405784577131271
10.960000000000001,0.021420121192932129
10.965,0.021420121192932129
10.970000000000001,0.020218094810843468
10.975,0.017910202965140343
10.98,0.013318459503352642
10.984999999999999,0.011154810898005962
10.99,0.011635622009634972
10.994999999999999,0.014400283806025982
11,0.018871825188398361
11.005000000000001,0.019232433289289474
11.01,0.012188553810119629
11.015000000000001,0.0024521350860595703
11.02,-0.015506148338317871
11.025,-0.025915702804923058
11.029999999999999,-0.033320188522338867
11.035,-0.0276947021484375
11.039999999999999,-0.017188986763358116
11.045,0.0048802299425005913
11.050000000000001,0.020698904991149902
11.055,0.040388107299804688
11.06,0.047888755798339844
11.065,0.048706136643886566
11.07,0.044138431549072266
11.074999999999999,0.039138000458478928
11.08,0.044883690774440765
11.085000000000001,0.07779519259929657
11.09,0.11565904319286346
11.095000000000001,0.1777317225933075
11.1,0.2013154923915863
11.105,0.18972794711589813
11.109999999999999,0.075246892869472504
11.115,-0.16054272651672363
11.119999999999999,-0.35765111446380615
11.125,-0.62813127040863037
11.130000000000001,-0.73549628257751465
11.135,-0.72205764055252075
11.140000000000001,-0.59509956836700439
11.145,-0.2915877103805542
11.15,-0.074285268783569336
11.154999999999999,0.17862121760845184
11.16,0.26896557211875916
11.164999999999999,0.29245316982269287
11.17,0.25927722454071045
11.175000000000001,0.18734793365001678
11.18,0.14501254260540009
11.185,0.1015472412109375
11.19,0.083516836166381836
11.195,0.065221987664699554
11.199999999999999,0.056086581200361252
11.205,0.045893393456935883
11.210000000000001,0.041469931602478027
11.215,0.037815771996974945
11.220000000000001,0.036613743752241135
11.225,0.035243432968854904
11.23,0.033921204507350922
11.234999999999999,0.030170878395438194
11.24,0.026228230446577072
11.244999999999999,0.018607378005981445
11.25,0.013342499732971191
11.255000000000001,0.006923675537109375
11.26,0.0040868921205401421
11.265000000000001,0.00064909458160400391
11.27,-0.0025002162437886
11.275,-0.010577837936580181
11.279999999999999,-0.018174648284912109
11.285,-0.031204622238874435
11.289999999999999,-0.039787095040082932
11.295,-0.05214393138885498
11.300000000000001,-0.060966812074184418
11.305,-0.077362462878227234
11.31,-0.090969406068325043
11.315,-0.1138560026884079
11.32,-0.12861689925193787
11.324999999999999,-0.14633476734161377
11.33,-0.15402774512767792
11.335000000000001,-0.15962919592857361
11.34,-0.16023020446300507
11.345000000000001,-0.15787422657012939
11.35,-0.15431623160839081
11.355,-0.14551739394664764
11.359999999999999,-0.13681471347808838
11.365,-0.11904875934123993
11.369999999999999,-0.10421574115753174
11.375,-0.078636609017848969
11.380000000000001,-0.060413878411054611
11.385,-0.033632718026638031
11.390000000000001,-0.017357271164655685
11.395,0.0034377973061054945
11.4,0.014881094917654991
11.404999999999999,0.029113095253705978
11.41,0.037118595093488693
11.414999999999999,0.047287743538618088
11.42,0.052793025970458984
11.425000000000001,0.059139728546142578
11.43,0.062433283776044846
11.435,0.066904827952384949
11.44,0.06998201459646225
11.445,0.074357390403747559
11.449999999999999,0.07630467414855957
11.455,0.076472960412502289
11.460000000000001,0.074693962931632996
11.465,0.070510908961296082
11.470000000000001,0.067698165774345398
11.475,0.06428440660238266
11.48,0.062096714973449707
11.484999999999999,0.057625174522399902
11.49,0.053490202873945236
11.494999999999999,0.046542488038539886
11.5,0.04274408146739006
11.505000000000001,0.04012366384267807
11.51,0.040604472160339355
11.515000000000001,0.043272972106933594
11.52,0.044883690774440765
11.525,0.04507601261138916
11.529999999999999,0.043345093727111816
11.535,0.039186082780361176
11.539999999999999,0.036782026290893555
11.545,0.03584444522857666
11.550000000000001,0.037455163896083832
11.555,0.042167108505964279
11.56,0.045604906976222992
11.565,0.049090784043073654
11.57,0.049739878624677658
11.574999999999999,0.048489771783351898
11.58,0.046855013817548752
11.585000000000001,0.044475000351667404
11.59,0.04370570182800293
11.595000000000001,0.044547121971845627
11.6,0.046590566635131836
11.605,0.051062107086181641
11.609999999999999,0.05401909351348877
11.615,0.057048201560974121
11.619999999999999,0.05784153938293457
11.625,0.058130025863647461
11.630000000000001,0.058394473046064377
11.635,0.059163771569728851
11.640000000000001,0.059283971786499023
11.645,0.057072244584560394
11.65,0.053466163575649261
11.654999999999999,0.046037636697292328
11.66,0.041590135544538498
11.664999999999999,0.03904183954000473
11.67,0.040989123284816742
11.675000000000001,0.047768555581569672
11.68,0.052240096032619476
11.685,0.053610406816005707
11.69,0.048970580101013184
11.695,0.034041404724121094
11.699999999999999,0.021420121192932129
11.705,0.0050485134124755859
11.710000000000001,-0.00060101354029029608
11.715,0.0018992027034983039
11.720000000000001,0.010481676086783409
11.725,0.030074715614318848
11.73,0.044763486832380295
11.734999999999999,0.064116120338439941
11.74,0.072650514543056488
11.744999999999999,0.075655579566955566
11.75,0.071039795875549316
11.755000000000001,0.059428215026855469
11.76,0.055317282676696777
11.765000000000001,0.069260798394680023
11.77,0.098157525062561035
11.775,0.16739428043365479
11.779999999999999,0.21686971187591553
11.785,0.25360366702079773
11.789999999999999,0.22475501894950867
11.795,0.069332920014858246
11.800000000000001,-0.10553797334432602
11.805,-0.41967570781707764
11.81,-0.60870647430419922
11.815,-0.76271021366119385
11.82,-0.74232381582260132
11.824999999999999,-0.53208929300308228
11.83,-0.31481087207794189
11.835000000000001,0.018847784027457237
11.84,0.18989622592926025
11.845000000000001,0.32168647646903992
11.85,0.3319517970085144
11.855,0.27733168005943298
11.859999999999999,0.22535602748394012
11.865,0.16013404726982117
11.869999999999999,0.13253550231456757
11.875,0.11145194619894028
11.880000000000001,0.10551393032073975
11.885,0.10094623267650604
11.890000000000001,0.098037324845790863
11.895,0.091666579246520996
11.9,0.085800692439079285
11.904999999999999,0.075391136109828949
11.91,0.068467460572719574
11.914999999999999,0.060197513550519943
11.92,0.056952040642499924
11.925000000000001,0.055557690560817719
11.93,0.056110620498657227
11.935,0.056807797402143478
11.94,0.055870216339826584
11.945,0.051206350326538086
11.949999999999999,0.046085715293884277
11.955,0.036637783050537109
11.960000000000001,0.029906433075666428
11.965,0.01966516301035881
11.970000000000001,0.012573203071951866
11.975,0.00091354054166004062
11.98,-0.0077891349792480469
11.984999999999999,-0.022622149437665939
11.99,-0.033897161483764648
11.994999999999999,-0.053009390830993652
12,-0.066712498664855957
12.005000000000001,-0.086762309074401855
12.01,-0.09830176830291748
12.015000000000001,-0.1106826514005661
12.02,-0.11522631347179413
12.025,-0.11714955419301987
12.029999999999999,-0.11597156524658203
12.035,-0.11118750274181366
12.039999999999999,-0.10577838122844696
12.045,-0.093253254890441895
12.050000000000001,-0.081449352204799652
12.055,-0.058682959526777267
12.06,-0.040892958641052246
12.065,-0.01247704029083252
12.07,0.0062024593353271484
12.074999999999999,0.031877756118774414
12.08,0.046638648957014084
12.085000000000001,0.064693093299865723
12.09,0.074068903923034668
12.095000000000001,0.084815025329589844
12.1,0.090368390083312988
12.105,0.097027622163295746
12.109999999999999,0.10051350295543671
12.115,0.10416766256093979
12.119999999999999,0.10570625960826874
12.125,0.10575433820486069
12.130000000000001,0.10548989474773407
12.135,0.10589858144521713
12.140000000000001,0.10719677060842514
12.145,0.11039416491985321
12.15,0.1131107434630394
12.154999999999999,0.11339922994375229
12.16,0.11200487613677979
12.164999999999999,0.10714869201183319
12.17,0.10087411105632782
12.175000000000001,0.097051665186882019
12.18,0.092652246356010437
12.185,0.090512633323669434
12.19,0.087964341044425964
12.195,0.086473822593688965
12.199999999999999,0.084839068353176117
12.205,0.084310173988342285
12.210000000000001,0.084382295608520508
12.215,0.084670782089233398
12.220000000000001,0.0845746248960495
12.225,0.083853408694267273
12.23,0.081978246569633484
12.234999999999999,0.080800257623195648
12.24,0.080487728118896484
12.244999999999999,0.08166571706533432
12.25,0.08519967645406723
12.255000000000001,0.087988376617431641
12.26,0.091426178812980652
12.265000000000001,0.092772446572780609
12.27,0.093541741371154785
12.275,0.093565784394741058
12.279999999999999,0.093469619750976562
12.285,0.093469619750976562
12.289999999999999,0.093661949038505554
12.295,0.094190835952758789
12.300000000000001,0.096186205744743347
12.305,0.098325811326503754
12.31,0.10181169211864471
12.315,0.10325412452220917
12.32,0.10253290832042694
12.324999999999999,0.099960565567016602
12.33,0.094407200813293457
12.335000000000001,0.090969406068325043
12.34,0.088180705904960632
12.345000000000001,0.087964341044425964
12.35,0.088565349578857422
12.355,0.088493227958679199
12.359999999999999,0.086954638361930847
12.365,0.085656449198722839
12.369999999999999,0.085343919694423676
12.375,0.086786352097988129
12.380000000000001,0.08986353874206543
12.385,0.090224146842956543
12.390000000000001,0.08416593074798584
12.395,0.074790120124816895
12.4,0.055293243378400803
12.404999999999999,0.042359434068202972
12.41,0.030218958854675293
12.414999999999999,0.030050676316022873
12.42,0.042551755905151367
12.425000000000001,0.057360731065273285
12.43,0.082963906228542328
12.435,0.098133489489555359
12.44,0.11229336261749268
12.445,0.11431276798248291
12.449999999999999,0.10811030864715576
12.455,0.10246078670024872
12.460000000000001,0.10460039228200912
12.465,0.12099604308605194
12.470000000000001,0.17378906905651093
12.475,0.22158166766166687
12.48,0.28110605478286743
12.484999999999999,0.28555354475975037
12.49,0.1945120096206665
12.494999999999999,0.056783758103847504
12.5,-0.24033328890800476
12.505000000000001,-0.45525571703910828
12.51,-0.69972395896911621
12.515000000000001,-0.75653177499771118
12.52,-0.64378166198730469
12.525,-0.45765978097915649
12.529999999999999,-0.10818243026733398
12.535,0.10520140826702118
12.539999999999999,0.31440219283103943
12.545,0.36681056022644043
12.550000000000001,0.34534236788749695
12.555,0.29682856798171997
12.56,0.22102873027324677
12.565,0.18321296572685242
12.57,0.1492917537689209
12.574999999999999,0.13777634501457214
12.58,0.12933811545372009
12.585000000000001,0.12662152945995331
12.59,0.12359242141246796
12.595000000000001,0.12092392146587372
12.6,0.11472146213054657
12.605,0.10933637619018555
12.609999999999999,0.10118663311004639
12.615,0.096859335899353027
12.619999999999999,0.092868611216545105
12.625,0.091474257409572601
12.630000000000001,0.089791417121887207
12.635,0.088156662881374359
12.640000000000001,0.084358260035514832
12.645,0.080968543887138367
12.65,0.074862241744995117
12.654999999999999,0.070054136216640472
12.66,0.061062972992658615
12.664999999999999,0.053297877311706543
12.67,0.038272541016340256
12.675000000000001,0.026011865586042404
12.68,0.0052889189682900906
12.685,-0.0091113653033971786
12.69,-0.029738148674368858
12.695,-0.041998825967311859
12.699999999999999,-0.05755305290222168
12.705,-0.066183611750602722
12.710000000000001,-0.077362462878227234
12.715,-0.083805322647094727
12.720000000000001,-0.091354057192802429
12.725,-0.094070635735988617
12.73,-0.092940732836723328
12.734999999999999,-0.088300906121730804
12.74,-0.07596810907125473
12.744999999999999,-0.064957544207572937
12.75,-0.045532785356044769
12.755000000000001,-0.030988257378339767
12.76,-0.0073804459534585476
12.765000000000001,0.0089911622926592827
12.77,0.033151905983686447
12.775,0.048393607139587402
12.779999999999999,0.069717571139335632
12.785,0.083108149468898773
12.789999999999999,0.101643405854702
12.795,0.11210104078054428
12.800000000000001,0.12325584888458252
12.805,0.12727062404155731
12.81,0.129891037940979
12.815,0.13116519153118134
12.82,0.13486742973327637
12.824999999999999,0.13849756121635437
12.83,0.14344990253448486
12.835000000000001,0.14477214217185974
12.84,0.14263252913951874
12.845000000000001,0.13909856975078583
12.85,0.13277590274810791
12.855,0.12890538573265076
12.859999999999999,0.12404918670654297
12.865,0.12111624330282211
12.869999999999999,0.11700531095266342
12.875,0.11476954072713852
12.880000000000001,0.11308670043945312
12.885,0.11313478648662567
12.890000000000001,0.11383195966482162
12.895,0.11368771642446518
12.9,0.11135578155517578
12.904999999999999,0.10866324603557587
12.91,0.10469655692577362
12.914999999999999,0.10318200290203094
12.92,0.10332624614238739
12.925000000000001,0.1045282706618309
12.93,0.10637938976287842
12.935,0.1069563627243042
12.94,0.10671596229076385
12.945,0.1062111109495163
12.949999999999999,0.10563413798809052
12.955,0.1054658517241478
12.960000000000001,0.1053696870803833
12.965,0.10529756546020508
12.970000000000001,0.10544180870056152
12.975,0.10587453842163086
12.98,0.10714869201183319
12.984999999999999,0.10808627307415009
12.99,0.10890364646911621
12.994999999999999,0.10873536765575409
13,0.1075093001127243
13.005000000000001,0.10637938976287842
13.01,0.10493695735931396
13.015000000000001,0.1045282706618309
13.02,0.10500907897949219
13.025,0.10604282468557358
13.029999999999999,0.10820647329092026
13.035,0.10967294871807098
13.039999999999999,0.11104325950145721
13.045,0.11089901626110077
13.050000000000001,0.1085430383682251
13.055,0.10553797334432602
13.06,0.099527835845947266
13.065,0.095200538635253906
13.07,0.089791417121887207
13.074999999999999,0.087916254997253418
13.08,0.088565349578857422
13.085000000000001,0.091041527688503265
13.09,0.095585189759731293
13.095000000000001,0.097195908427238464
13.1,0.094166800379753113
13.105,0.087531611323356628
13.109999999999999,0.071712933480739594
13.115,0.059404175728559494
13.119999999999999,0.043633580207824707
13.125,0.037815771996974945
13.130000000000001,0.03908991813659668
13.135,0.046590566635131836
13.140000000000001,0.065005622804164886
13.145,0.079285703599452972
13.15,0.098397932946681976
13.154999999999999,0.10683616250753403
13.16,0.11051436513662338
13.164999999999999,0.10794202983379364
13.17,0.10363876819610596
13.175000000000001,0.10741313546895981
13.18,0.13491551578044891
13.185,0.17020702362060547
13.19,0.23605406284332275
13.195,0.26961466670036316
13.199999999999999,0.25845986604690552
13.205,0.18530449271202087
13.210000000000001,-0.036565661430358887
13.215,-0.23970822989940643
13.220000000000001,-0.54670596122741699
13.225,-0.69227141141891479
13.23,-0.73888599872589111
13.234999999999999,-0.64130544662475586
13.24,-0.35070341825485229
13.244999999999999,-0.11989017575979233
13.25,0.1753997802734375
13.255000000000001,0.29795846343040466
13.26,0.35897335410118103
13.265000000000001,0.33861100673675537
13.27,0.26894152164459229
13.275,0.22124509513378143
13.279999999999999,0.16825973987579346
13.285,0.14635881781578064
13.289999999999999,0.12751102447509766
13.295,0.1205633133649826
13.300000000000001,0.11440893262624741
13.305,0.11145194619894028
13.31,0.10657171905040741
13.315,0.10236462205648422
13.32,0.095104381442070007
13.324999999999999,0.090536676347255707
13.33,0.085440084338188171
13.335000000000001,0.083204314112663269
13.34,0.08024732768535614
13.345000000000001,0.077554784715175629
13.35,0.071640811860561371
13.355,0.066640377044677734
13.359999999999999,0.05863487720489502
13.365,0.053394041955471039
13.369999999999999,0.045580863952636719
13.375,0.039883255958557129
13.380000000000001,0.029617946594953537
13.385,0.021227797493338585
13.390000000000001,0.0062024593353271484
13.395,-0.0053850812837481499
13.4,-0.024689635261893272
13.404999999999999,-0.038272541016340256
13.41,-0.057961743324995041
13.414999999999999,-0.069453120231628418
13.42,-0.08349280059337616
13.425000000000001,-0.091618500649929047
13.43,-0.10479271411895752
13.435,-0.1152503490447998
13.44,-0.13116519153118134
13.445,-0.13808886706829071
13.449999999999999,-0.13534824550151825
13.455,-0.12236635386943817
13.460000000000001,-0.088709592819213867
13.465,-0.048369567841291428
13.470000000000001,-0.024040540680289268
13.475,0.0032935540657490492
13.48,0.015626352280378342
13.484999999999999,0.02952178381383419
13.49,0.038633149117231369
13.494999999999999,0.055149000138044357
13.5,0.067962609231472015
13.505000000000001,0.087291203439235687
13.51,0.098133489489555359
13.515000000000001,0.10849495977163315
13.52,0.11113941669464111
13.525,0.11049032211303711
13.529999999999999,0.10897576808929443
13.535,0.1083507165312767
13.539999999999999,0.10988931357860565
13.545,0.11426468938589096
13.550000000000001,0.11705338954925537
13.555,0.11854390799999237
13.56,0.11719763278961182
13.565,0.11243760585784912
13.57,0.10859112441539764
13.574999999999999,0.10510524362325668
13.58,0.10099431127309799
13.585000000000001,0.097388230264186859
13.59,0.09447932243347168
13.595000000000001,0.088950000703334808
13.6,0.084959268569946289
13.605,0.079934798181056976
13.609999999999999,0.077699027955532074
13.615,0.076256595551967621
13.619999999999999,0.074213147163391113
13.625,0.070823431015014648
13.630000000000001,0.06786644458770752
13.635,0.064212284982204437
13.640000000000001,0.063587233424186707
13.645,0.066087447106838226
13.65,0.069284841418266296
13.654999999999999,0.073948703706264496
13.66,0.075823865830898285
13.664999999999999,0.076569125056266785
13.67,0.076424881815910339
13.675000000000001,0.076809525489807129
13.68,0.077843271195888519
13.685,0.079790554940700531
13.69,0.080487728118896484
13.695,0.079285703599452972
13.699999999999999,0.076881647109985352
13.705,0.072025462985038757
13.710000000000001,0.069308876991271973
13.715,0.068299174308776855
13.720000000000001,0.070174336433410645
13.725,0.075655579566955566
13.73,0.079478025436401367
13.734999999999999,0.082819662988185883
13.74,0.082675419747829437
13.744999999999999,0.079309746623039246
13.75,0.075799822807312012
13.755000000000001,0.069813728332519531
13.76,0.065823003649711609
13.765000000000001,0.060413878411054611
13.77,0.05767325684428215
13.775,0.055605769157409668
13.779999999999999,0.055557690560817719
13.785,0.055966377258300781
13.789999999999999,0.055100917816162109
13.795,0.049860082566738129
13.800000000000001,0.043321054428815842
13.805,0.030675729736685753
13.81,0.022622149437665939
13.815,0.015698473900556564
13.82,0.016563933342695236
13.824999999999999,0.026925405487418175
13.83,0.038536988198757172
13.835000000000001,0.058154068887233734
13.84,0.069284841418266296
13.845000000000001,0.077867314219474792
13.85,0.076929733157157898
13.855,0.068659782409667969
13.859999999999999,0.064140163362026215
13.865,0.072722636163234711
13.869999999999999,0.09584963321685791
13.875,0.15756170451641083
13.880000000000001,0.20609955489635468
13.885,0.25170445442199707
13.890000000000001,0.23566941916942596
13.895,0.1047205924987793
13.9,-0.055701933801174164
13.904999999999999,-0.36065620183944702
13.91,-0.55552881956100464
13.914999999999999,-0.73564052581787109
13.92,-0.7396312952041626
13.925000000000001,-0.56444787979125977
13.93,-0.36289197206497192
13.935,-0.035700201988220215
13.94,0.1416468620300293
13.945,0.2922368049621582
13.949999999999999,0.31673413515090942
13.955,0.28033673763275146
13.960000000000001,0.23667912185192108
13.965,0.17705857753753662
13.970000000000001,0.14847438037395477
13.975,0.11964976787567139
13.98,0.10577838122844696
13.984999999999999,0.088925957679748535
13.99,0.080175206065177917
13.994999999999999,0.071328282356262207
14,0.067986652255058289
14.005000000000001,0.064909458160400391
14.01,0.06286601722240448
14.015000000000001,0.058250229805707932
14.02,0.053898893296718597
14.025,0.045965515077114105
14.029999999999999,0.040508311241865158
14.035,0.033488474786281586
14.039999999999999,0.03014683723449707
14.045,0.026829242706298828
14.050000000000001,0.024761756882071495
14.055,0.019617080688476562
14.06,0.013775229454040527
14.065,0.0013462703209370375
14.07,-0.0084382295608520508
14.074999999999999,-0.023151040077209473
14.08,-0.032454729080200195
14.085000000000001,-0.046806931495666504
14.09,-0.057985782623291016
14.095000000000001,-0.078444287180900574
14.1,-0.09368598461151123
14.105,-0.11537055671215057
14.109999999999999,-0.12678980827331543
14.115,-0.13755998015403748
14.119999999999999,-0.14094969630241394
14.125,-0.14239212870597839
14.130000000000001,-0.14169494807720184
14.135,-0.13799270987510681
14.140000000000001,-0.13313651084899902
14.145,-0.12157301604747772
14.15,-0.11101921647787094
14.154999999999999,-0.09123384952545166
14.16,-0.075583457946777344
14.164999999999999,-0.049114823341369629
14.17,-0.030531486496329308
14.175000000000001,-0.0041349730454385281
14.18,0.010890364646911621
14.185,0.028415918350219727
14.19,0.037455163896083832
14.195,0.04940330982208252
14.199999999999999,0.057360731065273285
14.205,0.069477163255214691
14.210000000000001,0.076977811753749847
14.215,0.086017057299613953
14.220000000000001,0.090031825006008148
14.225,0.092700324952602386
14.23,0.092243552207946777
14.234999999999999,0.088853836059570312
14.24,0.085560284554958344
14.244999999999999,0.081160865724086761
14.25,0.079646311700344086
14.255000000000001,0.07983863353729248
14.26,0.080728136003017426
14.265000000000001,0.080896422266960144
14.27,0.07921358197927475
14.275,0.074165068566799164
14.279999999999999,0.070030093193054199
14.285,0.064116120338439941
14.289999999999999,0.060534082353115082
14.295,0.055028796195983887
14.300000000000001,0.050821702927350998
14.305,0.044234596192836761
14.31,0.040580432862043381
14.315,0.038056176155805588
14.32,0.03875335305929184
14.324999999999999,0.04262387752532959
14.33,0.046061675995588303
14.335000000000001,0.05077362060546875
14.34,0.052985351532697678
14.345000000000001,0.054283540695905685
14.35,0.053730607032775879
14.355,0.051110189408063889
14.359999999999999,0.048802297562360764
14.365,0.046181879937648773
14.369999999999999,0.045845311135053635
14.375,0.047816634178161621
14.380000000000001,0.050028365105390549
14.385,0.052696865051984787
14.390000000000001,0.053297877311706543
14.395,0.052720904350280762
14.4,0.052264135330915451
14.404999999999999,0.053009390830993652
14.41,0.054692231118679047
14.414999999999999,0.058033864945173264
14.42,0.059884987771511078
14.425000000000001,0.061135094612836838
14.43,0.06103893369436264
14.435,0.060269635170698166
14.44,0.059812866151332855
14.445,0.059115689247846603
14.449999999999999,0.057456891983747482
14.455,0.055293243378400803
14.460000000000001,0.050461094826459885
14.465,0.046855013817548752
14.470000000000001,0.043753784149885178
14.475,0.041614174842834473
14.48,0.043224893510341644
14.484999999999999,0.045941472053527832
14.49,0.050413012504577637
14.494999999999999,0.052095852792263031
14.5,0.051566958427429199
14.505000000000001,0.044931769371032715
14.51,0.031132500618696213
14.515000000000001,0.019304554909467697
14.52,0.0018270810833200812
14.525,-0.006707310676574707
14.529999999999999,-0.010625919327139854
14.535,-0.0056735677644610405
14.539999999999999,0.011539459228515625
14.545,0.027406215667724609
14.550000000000001,0.051446758210659027
14.555,0.063370868563652039
14.56,0.069573327898979187
14.565,0.065678760409355164
14.57,0.05505283921957016
14.574999999999999,0.053201716393232346
14.58,0.0738525390625
14.585000000000001,0.10782182216644287
14.59,0.17965495586395264
14.595000000000001,0.22374531626701355
14.6,0.23857831954956055
14.605,0.18768450617790222
14.609999999999999,-0.0018270810833200812
14.615,-0.19157907366752625
14.619999999999999,-0.50295215845108032
14.625,-0.67041856050491333
14.630000000000001,-0.77033102512359619
14.635,-0.71085476875305176
14.640000000000001,-0.46047252416610718
14.645,-0.2376888245344162
14.65,0.072866879403591156
14.654999999999999,0.21667739748954773
14.66,0.31098842620849609
14.664999999999999,0.30745446681976318
14.67,0.25165638327598572
14.675000000000001,0.20686885714530945
14.68,0.15239298343658447
14.685,0.12734274566173553
14.69,0.10265310853719711
14.695,0.092075273394584656
14.699999999999999,0.082338854670524597
14.705,0.078612565994262695
14.710000000000001,0.074141025543212891
14.715,0.070510908961296082
14.720000000000001,0.063635312020778656
14.725,0.059163771569728851
14.73,0.054668188095092773
14.734999999999999,0.053321920335292816
14.74,0.051783323287963867
14.744999999999999,0.04935523122549057
14.75,0.042263269424438477
14.755000000000001,0.035916566848754883
14.76,0.026973485946655273
14.765000000000001,0.022814473137259483
14.77,0.019400715827941895
14.775,0.017333230003714561
14.779999999999999,0.010505716316401958
14.785,0.0018511216621845961
14.789999999999999,-0.016828378662467003
14.795,-0.03106037899851799
14.800000000000001,-0.050821702927350998
14.805,-0.061519742012023926
14.81,-0.074525676667690277
14.815,-0.082867741584777832
14.82,-0.097556516528129578
14.824999999999999,-0.10902385413646698
14.83,-0.12623688578605652
14.835000000000001,-0.13532420992851257
14.84,-0.14198343455791473
14.845000000000001,-0.14087757468223572
14.85,-0.13162195682525635
14.855,-0.12154897302389145
14.859999999999999,-0.10286947339773178
14.865,-0.08907020092010498
14.869999999999999,-0.067289471626281738
14.875,-0.052095852792263031
14.880000000000001,-0.027959149330854416
14.885,-0.011010567657649517
14.890000000000001,0.014833013527095318
14.895,0.03122866153717041
14.9,0.052071809768676758
14.904999999999999,0.062385201454162598
14.91,0.072265863418579102
14.914999999999999,0.076160430908203125
14.92,0.080656014382839203
14.925000000000001,0.084045730531215668
14.93,0.090320311486721039
14.935,0.094743773341178894
14.94,0.10020097345113754
14.945,0.10248482227325439
14.949999999999999,0.10409554094076157
14.955,0.10433594882488251
14.960000000000001,0.1038791760802269
14.965,0.10291755199432373
14.970000000000001,0.1000567302107811
14.975,0.097243987023830414
14.98,0.092508003115653992
14.984999999999999,0.089695259928703308
14.99,0.086666151881217957
14.994999999999999,0.085343919694423676
15,0.083396635949611664
15.005000000000001,0.081545516848564148
15.01,0.077747106552124023
15.015000000000001,0.074838206171989441
15.02,0.070871517062187195
15.025,0.068828068673610687
15.029999999999999,0.066952906548976898
15.035,0.066520176827907562
15.039999999999999,0.067097149789333344
15.045,0.068299174308776855
15.050000000000001,0.070991717278957367
15.055,0.072794757783412933
15.06,0.074525676667690277
15.065,0.074717998504638672
15.07,0.074044868350028992
15.074999999999999,0.073636174201965332
15.08,0.0738525390625
15.085000000000001,0.074621841311454773
15.09,0.076040230691432953
15.095000000000001,0.076833568513393402
15.1,0.077506706118583679
15.105,0.077723070979118347
15.109999999999999,0.077891349792480469
15.115,0.077963471412658691
15.119999999999999,0.077963471412658691
15.125,0.077891349792480469
15.130000000000001,0.077771149575710297
15.135,0.077723070979118347
15.140000000000001,0.077650949358940125
15.145,0.077578827738761902
15.15,0.077554784715175629
15.154999999999999,0.077771149575710297
15.16,0.078540444374084473
15.164999999999999,0.079045295715332031
15.17,0.078756809234619141
15.175000000000001,0.077218219637870789
15.18,0.072602435946464539
15.185,0.068611703813076019
15.19,0.063442990183830261
15.195,0.061928432434797287
15.199999999999999,0.063394904136657715
15.205,0.066087447106838226
15.210000000000001,0.06964544951915741
15.215,0.069669485092163086
15.220000000000001,0.063995920121669769
15.225,0.05642315000295639
15.23,0.04154205322265625
15.234999999999999,0.031252704560756683
15.24,0.019016068428754807
15.244999999999999,0.014664730057120323
15.25,0.015650391578674316
15.255000000000001,0.021396081894636154
15.26,0.036156974732875824
15.265000000000001,0.048489771783351898
15.27,0.067097149789333344
15.275,0.077122054994106293
15.279999999999999,0.084718868136405945
15.285,0.084021687507629395
15.289999999999999,0.078035593032836914
15.295,0.076785489916801453
15.300000000000001,0.09301285445690155
15.305,0.12193362414836884
15.31,0.18859803676605225
15.315,0.23384234309196472
15.32,0.25848388671875
15.324999999999999,0.21696588397026062
15.33,0.037551324814558029
15.335000000000001,-0.15306612849235535
15.34,-0.48117142915725708
15.345000000000001,-0.66827893257141113
15.35,-0.800525963306427
15.355,-0.75708472728729248
15.359999999999999,-0.51261645555496216
15.365,-0.28045696020126343
15.369999999999999,0.057432852685451508
15.375,0.22124509513378143
15.380000000000001,0.33675989508628845
15.385,0.33808213472366333
15.390000000000001,0.27728360891342163
15.395,0.22501945495605469
15.4,0.16090333461761475
15.404999999999999,0.13316056132316589
15.41,0.11010567843914032
15.414999999999999,0.10253290832042694
15.42,0.09659489244222641
15.425000000000001,0.093998514115810394
15.43,0.090079903602600098
15.435,0.086954638361930847
15.44,0.081449352204799652
15.445,0.077506706118583679
15.449999999999999,0.071568690240383148
15.455,0.067890487611293793
15.460000000000001,0.06325066089630127
15.465,0.060966812074184418
15.470000000000001,0.058370433747768402
15.475,0.054908595979213715
15.48,0.050869785249233246
15.484999999999999,0.041397809982299805
15.49,0.03339231014251709
15.494999999999999,0.020963352173566818
15.5,0.013318459503352642
15.505000000000001,0.0026925406418740749
15.51,-0.0048561892472207546
15.515000000000001,-0.01891990564763546
15.52,-0.030627649277448654
15.525,-0.050821702927350998
15.529999999999999,-0.064789257943630219
15.535,-0.084334217011928558
15.539999999999999,-0.095633268356323242
15.545,-0.10945658385753632
15.550000000000001,-0.11652450263500214
15.555,-0.12376070022583008
15.56,-0.12618879973888397
15.565,-0.1260685920715332
15.57,-0.12342413514852524
15.574999999999999,-0.11537055671215057
15.58,-0.10693232715129852
15.585000000000001,-0.088853836059570312
15.59,-0.072866879403591156
15.595000000000001,-0.043681662529706955
15.6,-0.022309621796011925
15.605,0.0087267160415649414
15.609999999999999,0.026516716927289963
15.615,0.046951174736022949
15.619999999999999,0.056903958320617676
15.625,0.068804025650024414
15.630000000000001,0.076232552528381348
15.635,0.087411403656005859
15.640000000000001,0.094262957572937012
15.645,0.10212421417236328
15.65,0.1053696870803833
15.654999999999999,0.10823051631450653
15.66,0.10962486267089844
15.664999999999999,0.11154811084270477
15.67,0.11224528402090073
15.675000000000001,0.11080285161733627
15.68,0.1077016219496727
15.685,0.10082602500915527
15.69,0.096210241317749023
15.695,0.091666579246520996
15.699999999999999,0.090680919587612152
15.705,0.091065570712089539
15.710000000000001,0.09123384952545166
15.715,0.08952697366476059
15.720000000000001,0.086978673934936523
15.725,0.082435011863708496
15.73,0.07995884120464325
15.734999999999999,0.078035593032836914
15.74,0.077554784715175629
15.744999999999999,0.076545082032680511
15.75,0.075030528008937836
15.755000000000001,0.071640811860561371
15.76,0.069453120231628418
15.765000000000001,0.067890487611293793
15.77,0.068419381976127625
15.775,0.070919595658779144
15.779999999999999,0.072698593139648438
15.785,0.074020825326442719
15.789999999999999,0.073612138628959656
15.795,0.07140040397644043
15.800000000000001,0.069549284875392914
15.805,0.067577958106994629
15.81,0.067433714866638184
15.815,0.069429084658622742
15.82,0.071905255317687988
15.824999999999999,0.076064273715019226
15.83,0.078227922320365906
15.835000000000001,0.079405903816223145
15.84,0.078852973878383636
15.845000000000001,0.076881647109985352
15.85,0.075559422373771667
15.855,0.074165068566799164
15.859999999999999,0.073564052581787109
15.865,0.072554349899291992
15.869999999999999,0.071712933480739594
15.875,0.070631109178066254
15.880000000000001,0.07031857967376709
15.885,0.070246458053588867
15.890000000000001,0.069837771356105804
15.895,0.067313514649868011
15.9,0.064092084765434265
15.904999999999999,0.058130025863647461
15.91,0.054836474359035492
15.914999999999999,0.053081512451171875
15.92,0.05413929745554924
15.925000000000001,0.056567393243312836
15.93,0.056278906762599945
15.935,0.049451392143964767
15.94,0.040315985679626465
15.945,0.023175081238150597
15.949999999999999,0.013102094642817974
15.955,0.0061784191057085991
15.960000000000001,0.0088469190523028374
15.965,0.022718310356140137
15.970000000000001,0.036012731492519379
15.975,0.05659143254160881
15.98,0.067794322967529297
15.984999999999999,0.077025890350341797
15.99,0.077025890350341797
15.994999999999999,0.069477163255214691
16,0.063587233424186707
16.004999999999999,0.066279768943786621
16.010000000000002,0.083805322647094727
16.015000000000001,0.13900241255760193
16.02,0.1877085417509079
16.024999999999999,0.24427592754364014
16.030000000000001,0.24237672984600067
16.035,0.13652622699737549
16.039999999999999,-0.010914405807852745
16.045000000000002,-0.31271934509277344
16.050000000000001,-0.51946800947189331
16.055,-0.73427021503448486
16.059999999999999,-0.76528251171112061
16.065000000000001,-0.62108737230300903
16.07,-0.42760908603668213
16.074999999999999,-0.092291638255119324
16.079999999999998,0.099335514008998871
16.085000000000001,0.27326881885528564
16.09,0.3092094361782074
16.094999999999999,0.28014442324638367
16.100000000000001,0.23583769798278809
16.105,0.17133693397045135
16.109999999999999,0.13962745666503906
16.114999999999998,0.10933637619018555
16.120000000000001,0.097123786807060242
16.125,0.085560284554958344
16.129999999999999,0.080656014382839203
16.135000000000002,0.075487300753593445
16.140000000000001,0.072674557566642761
16.145,0.068683825433254242
16.149999999999999,0.066135525703430176
16.155000000000001,0.062216918915510178
16.16,0.058899324387311935
16.164999999999999,0.051735244691371918
16.170000000000002,0.045340459793806076
16.175000000000001,0.034642420709133148
16.18,0.027959149330854416
16.184999999999999,0.019881527870893478
16.190000000000001,0.01567443273961544
16.195,0.0099287433549761772
16.199999999999999,0.0057216486893594265
16.204999999999998,-0.0017790000420063734
16.210000000000001,-0.0076929731294512749
16.215,-0.01829485222697258
16.219999999999999,-0.027045607566833496
16.225000000000001,-0.043585501611232758
16.23,-0.056903958320617676
16.234999999999999,-0.07921358197927475
16.239999999999998,-0.09443124383687973
16.245000000000001,-0.11551479995250702
16.25,-0.12734274566173553
16.254999999999999,-0.14087757468223572
16.260000000000002,-0.14700791239738464
16.265000000000001,-0.15239298343658447
16.27,-0.1536671370267868
16.274999999999999,-0.1521766185760498
16.280000000000001,-0.14861862361431122
16.285,-0.13835331797599792
16.289999999999999,-0.12760719656944275
16.295000000000002,-0.10512928664684296
16.300000000000001,-0.086353622376918793
16.305,-0.054812431335449219
16.309999999999999,-0.03351251408457756
16.315000000000001,-0.0048802299425005913
16.32,0.01031339168548584
16.324999999999999,0.026540756225585938
16.329999999999998,0.033969283103942871
16.335000000000001,0.043152771890163422
16.34,0.049619674682617188
16.344999999999999,0.060510039329528809
16.350000000000001,0.067602001130580902
16.355,0.07522284984588623
16.359999999999999,0.077314376831054688
16.364999999999998,0.077122054994106293
16.370000000000001,0.07671336829662323
16.375,0.079069338738918304
16.379999999999999,0.083132192492485046
16.385000000000002,0.090680919587612152
16.390000000000001,0.094238921999931335
16.395,0.093806192278862
16.399999999999999,0.089214444160461426
16.405000000000001,0.078203879296779633
16.41,0.070510908961296082
16.414999999999999,0.062096714973449707
16.420000000000002,0.059428215026855469
16.425000000000001,0.05863487720489502
16.43,0.05858679860830307
16.434999999999999,0.056519310921430588
16.440000000000001,0.053249798715114594
16.445,0.046830974519252777
16.449999999999999,0.043080650269985199
16.454999999999998,0.040388107299804688
16.460000000000001,0.040772758424282074
16.465,0.043056607246398926
16.469999999999999,0.044258635491132736
16.475000000000001,0.043801866471767426
16.48,0.041854582726955414
16.484999999999999,0.03783981129527092
16.489999999999998,0.03584444522857666
16.495000000000001,0.035868488252162933
16.5,0.038272541016340256
16.504999999999999,0.044258635491132736
16.510000000000002,0.048465728759765625
16.515000000000001,0.05276898667216301
16.52,0.053754650056362152
16.524999999999999,0.053081512451171875
16.530000000000001,0.052119892090559006
16.535,0.051014028489589691
16.539999999999999,0.050557255744934082
16.545000000000002,0.049908161163330078
16.550000000000001,0.049451392143964767
16.555,0.049066744744777679
16.559999999999999,0.049138866364955902
16.565000000000001,0.048754215240478516
16.57,0.04719158262014389
16.574999999999999,0.041974782943725586
16.579999999999998,0.037118595093488693
16.585000000000001,0.030699770897626877
16.59,0.028848648071289062
16.594999999999999,0.03106037899851799
16.600000000000001,0.034882824867963791
16.605,0.040243864059448242
16.609999999999999,0.041013162583112717
16.614999999999998,0.034978985786437988
16.620000000000001,0.026035904884338379
16.625,0.0082218647003173828
16.629999999999999,-0.0034858784638345242
16.635000000000002,-0.014881094917654991
16.640000000000001,-0.01601099967956543
16.645,-0.0073083243332803249
16.649999999999999,0.0037984054069966078
16.655000000000001,0.023824175819754601
16.66,0.036661826074123383
16.664999999999999,0.051254432648420334
16.670000000000002,0.05630294606089592
16.675000000000001,0.055725973099470139
16.68,0.051302514970302582
16.684999999999999,0.046542488038539886
16.690000000000001,0.05197564885020256
16.695,0.084815025329589844
16.699999999999999,0.12426555156707764
16.704999999999998,0.19326190650463104
16.710000000000001,0.22441844642162323
16.715,0.20184437930583954
16.719999999999999,0.11827945709228516
16.725000000000001,-0.11500994861125946
