Data Set 1:Time(s),Data Set 1:EKG(mV),Data Set 1:Heart Rate(bpm),Data Set 2:Time(s),Data Set 2:EKG(mV),Data Set 2:Heart Rate(bpm)
0,0,79.545455932617188,0,0.19352635741233826,82.191780090332031
0.0050000000000000001,0,,0.0025000000000000001,0.19422352313995361,
0.01,0,,0.0050000000000000001,0.19475242495536804,
0.014999999999999999,0,,0.0074999999999999997,0.19523322582244873,
0.02,0,,0.01,0.19573807716369629,
0.025000000000000001,0,,0.012500000000000001,0.1961948573589325,
0.029999999999999999,0,,0.014999999999999999,0.19626697897911072,
0.035000000000000003,0,,0.017500000000000002,0.1953534334897995,
0.040000000000000001,0,,0.02,0.19359847903251648,
0.044999999999999998,0,,0.022499999999999999,0.18782874941825867,
0.050000000000000003,0,,0.025000000000000001,0.18455922603607178,
0.055,0,,0.0275,0.18201093375682831,
0.059999999999999998,0,,0.029999999999999999,0.18107335269451141,
0.065000000000000002,0,,0.032500000000000001,0.18756429851055145,
0.070000000000000007,0,,0.035000000000000003,0.19607464969158173,
0.074999999999999997,0,,0.037499999999999999,0.20787855982780457,
0.080000000000000002,0,,0.040000000000000001,0.22189418971538544,
0.085000000000000006,0,,0.042500000000000003,0.24812242388725281,
0.089999999999999997,0,,0.044999999999999998,0.25470954179763794,
0.095000000000000001,0,,0.047500000000000001,0.25271415710449219,
0.10000000000000001,0,,0.050000000000000003,0.23929953575134277,
0.105,0,,0.052499999999999998,0.17136096954345703,
0.11,0,,0.055,0.11659662425518036,
0.115,0,,0.057500000000000002,0.050413012504577637,
0.12,0,,0.059999999999999998,-0.023631852120161057,
0.125,0,,0.0625,-0.17597675323486328,
0.13,0.12157301604747772,,0.065000000000000002,-0.24391531944274902,
0.13500000000000001,0.12181341648101807,,0.067500000000000004,-0.3001701831817627,
0.14000000000000001,0.12873709201812744,,0.070000000000000007,-0.3415679931640625,
0.14499999999999999,0.13566076755523682,,0.072499999999999995,-0.37527284026145935,
0.14999999999999999,0.14568567276000977,,0.074999999999999997,-0.36971947550773621,
0.155,0.14967641234397888,,0.077499999999999999,-0.35320362448692322,
0.16,0.14746467769145966,,0.080000000000000002,-0.3299083411693573,
0.16500000000000001,0.13943514227867126,,0.082500000000000004,-0.28086563944816589,
0.17000000000000001,0.12092392146587372,,0.085000000000000006,-0.26276311278343201,
0.17499999999999999,0.10948061943054199,,0.087499999999999994,-0.25230547785758972,
0.17999999999999999,0.10380705446004868,,0.089999999999999997,-0.25038224458694458,
0.185,0.11015375703573227,,0.092499999999999999,-0.26886940002441406,
0.19,0.12861689925193787,,0.095000000000000001,-0.28512081503868103,
0.19500000000000001,0.13823311030864716,,0.097500000000000003,-0.30226171016693115,
0.20000000000000001,0.13388177752494812,,0.10000000000000001,-0.31735917925834656,
0.20499999999999999,0.11498590558767319,,0.10249999999999999,-0.33190369606018066,
0.20999999999999999,0.069092512130737305,,0.105,-0.32861015200614929,
0.215,0.035628080368041992,,0.1075,-0.31800827383995056,
0.22,-0.0031012296676635742,,0.11,-0.30108374357223511,
0.22500000000000001,-0.015458067879080772,,0.1125,-0.25574326515197754,
0.23000000000000001,-0.012068351730704308,,0.115,-0.2321835458278656,
0.23499999999999999,0.0020194053649902344,,0.11749999999999999,-0.21131634712219238,
0.23999999999999999,0.03214220330119133,,0.12,-0.19530534744262695,
0.245,0.052384339272975922,,0.1225,-0.18309275805950165,
0.25,0.073972746729850769,,0.125,-0.18751621246337891,
0.255,0.0791655033826828,,0.1275,-0.19782960414886475,
0.26000000000000001,0.072602435946464539,,0.13,-0.22888998687267303,
0.26500000000000001,0.061471663415431976,,0.13250000000000001,-0.24485290050506592,
0.27000000000000002,0.042311351746320724,,0.13500000000000001,-0.25790691375732422,
0.27500000000000002,0.031781595200300217,,0.13750000000000001,-0.26600858569145203,
0.28000000000000003,0.022117298096418381,,0.14000000000000001,-0.26788374781608582,
0.28499999999999998,0.019040107727050781,,0.14249999999999999,-0.25184869766235352,
0.28999999999999998,0.016636054962873459,,0.14499999999999999,-0.2355492115020752,
0.29499999999999998,0.015458067879080772,,0.14749999999999999,-0.21600425243377686,
0.29999999999999999,0.014352202415466309,,0.14999999999999999,-0.1760488748550415,
0.30499999999999999,0.014207959175109863,,0.1525,-0.1599176824092865,
0.31,0.013438662514090538,,0.155,-0.148546501994133,
0.315,0.010481676086783409,,0.1575,-0.14272868633270264,
0.32000000000000001,-0.0013703107833862305,,0.16,-0.14765700697898865,
0.32500000000000001,-0.014760891906917095,,0.16250000000000001,-0.1567443311214447,
0.33000000000000002,-0.040075581520795822,,0.16500000000000001,-0.16852419078350067,
0.33500000000000002,-0.057024162262678146,,0.16750000000000001,-0.18138587474822998,
0.34000000000000002,-0.077290341258049011,,0.17000000000000001,-0.20496964454650879,
0.34499999999999997,-0.085993014276027679,,0.17249999999999999,-0.2137204110622406,
0.34999999999999998,-0.093325376510620117,,0.17499999999999999,-0.2198747843503952,
0.35499999999999998,-0.09654681384563446,,0.17749999999999999,-0.22340874373912811,
0.35999999999999999,-0.10298967361450195,,0.17999999999999999,-0.22434632480144501,
0.36499999999999999,-0.11032204329967499,,0.1825,-0.22292792797088623,
0.37,-0.12787163257598877,,0.185,-0.22105276584625244,
0.375,-0.14414708316326141,,0.1875,-0.2192256897687912,
0.38,-0.17345249652862549,,0.19,-0.21674951910972595,
0.38500000000000001,-0.19323787093162537,,0.1925,-0.21619658172130585,
0.39000000000000001,-0.2161484956741333,,0.19500000000000001,-0.2159561812877655,
0.39500000000000002,-0.22302410006523132,,0.19750000000000001,-0.21581193804740906,
0.40000000000000002,-0.21845638751983643,,0.20000000000000001,-0.21499454975128174,
0.40500000000000003,-0.20807087421417236,,0.20250000000000001,-0.21412909030914307,
0.40999999999999998,-0.19160310924053192,,0.20499999999999999,-0.2129751443862915,
0.41499999999999998,-0.18696328997612,,0.20749999999999999,-0.2116769552230835,
0.41999999999999998,-0.19782960414886475,,0.20999999999999999,-0.20941714942455292,
0.42499999999999999,-0.2176390141248703,,0.21249999999999999,-0.20876805484294891,
0.42999999999999999,-0.25932532548904419,,0.215,-0.2085036039352417,
0.435,-0.28716427087783813,,0.2175,-0.20847956836223602,
0.44,-0.31190198659896851,,0.22,-0.20811896026134491,
0.44500000000000001,-0.30747851729393005,,0.2225,-0.20701310038566589,
0.45000000000000001,-0.25961381196975708,,0.22500000000000001,-0.20477733016014099,
0.45500000000000002,-0.20194053649902344,,0.22750000000000001,-0.20114719867706299,
0.46000000000000002,-0.098494097590446472,,0.23000000000000001,-0.1893913745880127,
0.46500000000000002,-0.042383473366498947,,0.23250000000000001,-0.1815541684627533,
0.46999999999999997,-0.030723810195922852,,0.23499999999999999,-0.17294764518737793,
0.47499999999999998,-0.099359557032585144,,0.23749999999999999,-0.16398052871227264,
0.47999999999999998,-0.33442795276641846,,0.23999999999999999,-0.14671942591667175,
0.48499999999999999,-0.56002438068389893,,0.24249999999999999,-0.13897836208343506,
0.48999999999999999,-0.91558396816253662,,0.245,-0.13191044330596924,
0.495,-1.0963928699493408,,0.2475,-0.1253233402967453,
0.5,-1.1844533681869507,,0.25,-0.11241357028484344,
0.505,-1.0993498563766479,,0.2525,-0.10548989474773407,
0.51000000000000001,-0.80083847045898438,,0.255,-0.097989246249198914,
0.51500000000000001,-0.55098515748977661,,0.25750000000000001,-0.090007781982421875,
0.52000000000000002,-0.21994690597057343,,0.26000000000000001,-0.081906124949455261,
0.52500000000000002,-0.076472960412502289,,0.26250000000000001,-0.067577958106994629,
0.53000000000000003,0.004567702766507864,,0.26500000000000001,-0.062673687934875488,
0.53500000000000003,-0.0096162166446447372,,0.26750000000000002,-0.060149431228637695,
0.54000000000000004,-0.075294971466064453,,0.27000000000000002,-0.063178539276123047,
0.54500000000000004,-0.12017866224050522,,0.27250000000000002,-0.068395338952541351,
0.55000000000000004,-0.16525468230247498,,0.27500000000000002,-0.075126692652702332,
0.55500000000000005,-0.17936646938323975,,0.27750000000000002,-0.082290768623352051,
0.56000000000000005,-0.18520832061767578,,0.28000000000000003,-0.092267595231533051,
0.56499999999999995,-0.18436691164970398,,0.28249999999999997,-0.092339716851711273,
0.56999999999999995,-0.18193881213665009,,0.28499999999999998,-0.087555646896362305,
0.57499999999999996,-0.18092910945415497,,0.28749999999999998,-0.077290341258049011,
0.57999999999999996,-0.18032810091972351,,0.28999999999999998,-0.040099620819091797,
0.58499999999999996,-0.1798713207244873,,0.29249999999999998,-0.014592608436942101,
0.58999999999999997,-0.17785191535949707,,0.29499999999999998,0.013655027374625206,
0.59499999999999997,-0.17549595236778259,,0.29749999999999999,0.042647920548915863,
0.59999999999999998,-0.17184178531169891,,0.29999999999999999,0.092916689813137054,
0.60499999999999998,-0.17061571776866913,,0.30249999999999999,0.10871132463216782,
0.60999999999999999,-0.1722264289855957,,0.30499999999999999,0.11448105424642563,
0.61499999999999999,-0.17549595236778259,,0.3075,0.10755737870931625,
0.62,-0.18191477656364441,,0.31,0.046686731278896332,
0.625,-0.18588146567344666,,0.3125,-0.010193189606070518,
0.63,-0.19032895565032959,,0.315,-0.085127554833889008,
0.63500000000000001,-0.19275705516338348,,0.3175,-0.17705857753753662,
0.64000000000000001,-0.19811809062957764,,0.32000000000000001,-0.40046733617782593,
0.64500000000000002,-0.20429651439189911,,0.32250000000000001,-0.52280962467193604,
0.65000000000000002,-0.21864871680736542,,0.32500000000000001,-0.64411818981170654,
0.65500000000000003,-0.23102959990501404,,0.32750000000000001,-0.75730109214782715,
0.66000000000000003,-0.25131982564926147,,0.33000000000000002,-0.93060934543609619,
0.66500000000000004,-0.26456615328788757,,0.33250000000000002,-0.97828173637390137,
0.67000000000000004,-0.28312546014785767,,0.33500000000000002,-0.99417251348495483,
0.67500000000000004,-0.29524189233779907,,0.33750000000000002,-0.97657483816146851,
0.68000000000000005,-0.31512340903282166,,0.34000000000000002,-0.84677994251251221,
0.68500000000000005,-0.33031702041625977,,0.34250000000000003,-0.74333351850509644,
0.68999999999999995,-0.3555595874786377,,0.34499999999999997,-0.62317889928817749,
0.69499999999999995,-0.37282070517539978,,0.34749999999999998,-0.49439370632171631,
0.69999999999999996,-0.3969573974609375,,0.34999999999999998,-0.24295370280742645,
0.70499999999999996,-0.41090092062950134,,0.35249999999999998,-0.13397793471813202,
0.70999999999999996,-0.42770525813102722,,0.35499999999999998,-0.04257579892873764,
0.71499999999999997,-0.43578287959098816,,0.35749999999999998,0.028920769691467285,
0.71999999999999997,-0.44184109568595886,,0.35999999999999999,0.11255781352519989,
0.72499999999999998,-0.44066309928894043,,0.36249999999999999,0.12871305644512177,
0.72999999999999998,-0.42897939682006836,,0.36499999999999999,0.13205468654632568,
0.73499999999999999,-0.41385790705680847,,0.36749999999999999,0.1261647641658783,
0.73999999999999999,-0.38032135367393494,,0.37,0.099696122109889984,
0.745,-0.35176119208335876,,0.3725,0.083925530314445496,
0.75,-0.30276656150817871,,0.375,0.068491503596305847,
0.755,-0.26831647753715515,,0.3775,0.05397101491689682,
0.76000000000000001,-0.21792750060558319,,0.38,0.028055310249328613,
0.76500000000000001,-0.18703541159629822,,0.38250000000000001,0.016251405701041222,
0.77000000000000002,-0.14640688896179199,,0.38500000000000001,0.0049763917922973633,
0.77500000000000002,-0.12332797050476074,,0.38750000000000001,-0.0057216486893594265,
0.78000000000000003,-0.094311043620109558,,0.39000000000000001,-0.024809837341308594,
0.78500000000000003,-0.078396201133728027,,0.39250000000000002,-0.032502811402082443,
0.79000000000000004,-0.059404175728559494,,0.39500000000000002,-0.038585066795349121,
0.79500000000000004,-0.050004325807094574,,0.39750000000000002,-0.042816203087568283,
0.80000000000000004,-0.040652554482221603,,0.40000000000000002,-0.045893393456935883,
0.80500000000000005,-0.037334959954023361,,0.40250000000000002,-0.045244298875331879,
0.81000000000000005,-0.03555595874786377,,0.40500000000000003,-0.043681662529706955,
0.81499999999999995,-0.035580001771450043,,0.40749999999999997,-0.041710339486598969,
0.81999999999999995,-0.035628080368041992,,0.40999999999999998,-0.038512945175170898,
0.82499999999999996,-0.034882824867963791,,0.41249999999999998,-0.03796001523733139,
0.82999999999999996,-0.032382607460021973,,0.41499999999999998,-0.038320623338222504,
0.83499999999999996,-0.030170878395438194,,0.41749999999999998,-0.039546690881252289,
0.83999999999999997,-0.027117729187011719,,0.41999999999999998,-0.043849945068359375,
0.84499999999999997,-0.025723379105329514,,0.42249999999999999,-0.046350162476301193,
0.84999999999999998,-0.024569433182477951,,0.42499999999999999,-0.048634015023708344,
0.85499999999999998,-0.024136703461408615,,0.42749999999999999,-0.050485134124755859,
0.85999999999999999,-0.023319324478507042,,0.42999999999999999,-0.052384339272975922,
0.86499999999999999,-0.02245386503636837,,0.4325,-0.052456460893154144,
0.87,-0.020819108933210373,,0.435,-0.052167974412441254,
0.875,-0.019785365089774132,,0.4375,-0.051759283989667892,
0.88,-0.019304554909467697,,0.44,-0.05168716236948967,
0.88500000000000001,-0.020073851570487022,,0.4425,-0.052528582513332367,
0.89000000000000001,-0.022766392678022385,,0.44500000000000001,-0.05413929745554924,
0.89500000000000002,-0.024833878502249718,,0.44750000000000001,-0.056567393243312836,
0.90000000000000002,-0.026348432525992393,,0.45000000000000001,-0.06353914737701416,
0.90500000000000003,-0.025458931922912598,,0.45250000000000001,-0.067698165774345398,
0.91000000000000003,-0.021564364433288574,,0.45500000000000002,-0.072001419961452484,
0.91500000000000004,-0.018342932686209679,,0.45750000000000002,-0.076232552528381348,
0.92000000000000004,-0.014712810516357422,,0.46000000000000002,-0.083757244050502777,
0.92500000000000004,-0.013655027374625206,,0.46250000000000002,-0.086858473718166351,
0.93000000000000005,-0.013486742973327637,,0.46500000000000002,-0.08952697366476059,
0.93500000000000005,-0.013510784134268761,,0.46750000000000003,-0.091810822486877441,
0.93999999999999995,-0.012861689552664757,,0.46999999999999997,-0.095681354403495789,
0.94499999999999995,-0.01214047335088253,,0.47249999999999998,-0.097460351884365082,
0.94999999999999996,-0.011323094367980957,,0.47499999999999998,-0.099263392388820648,
0.95499999999999996,-0.011154810898005962,,0.47749999999999998,-0.10118663311004639,
0.95999999999999996,-0.010914405807852745,,0.47999999999999998,-0.10551393032073975,
0.96499999999999997,-0.0098566217347979546,,0.48249999999999998,-0.10806223005056381,
0.96999999999999997,-0.0086786355823278427,,0.48499999999999999,-0.11097113788127899,
0.97499999999999998,-0.0074766082689166069,,0.48749999999999999,-0.11431276798248291,
0.97999999999999998,-0.0065390272065997124,,0.48999999999999999,-0.12277504056692123,
0.98499999999999999,-0.0071160001680254936,,0.49249999999999999,-0.12803992629051208,
0.98999999999999999,-0.0079093379899859428,,0.495,-0.13409814238548279,
0.995,-0.0085824728012084961,,0.4975,-0.14085352420806885,
1,-0.0081978244706988335,80.898880004882812,0.5,-0.15597502887248993,
1.0049999999999999,-0.0071640810929238796,,0.50249999999999995,-0.1639324426651001,
1.01,-0.0050244731828570366,,0.505,-0.17184178531169891,
1.0149999999999999,-0.0032214324455708265,,0.50749999999999995,-0.17941455543041229,
1.02,-0.0024040541611611843,,0.51000000000000001,-0.19290129840373993,
1.0249999999999999,-0.0011539459228515625,,0.51249999999999996,-0.19867102801799774,
1.03,0.00014424324035644531,,0.51500000000000001,-0.20381569862365723,
1.0349999999999999,0.0032214324455708265,,0.51749999999999996,-0.20847956836223602,
1.04,0.0057456893846392632,,0.52000000000000002,-0.21718224883079529,
1.0449999999999999,0.0093277301639318466,,0.52249999999999996,-0.22162973880767822,
1.05,0.011010567657649517,,0.52500000000000002,-0.22636573016643524,
1.0549999999999999,0.012188553810119629,,0.52749999999999997,-0.2314382791519165,
1.0600000000000001,0.012308756820857525,,0.53000000000000003,-0.24266521632671356,
1.0649999999999999,0.012308756820857525,,0.53249999999999997,-0.24862727522850037,
1.0700000000000001,0.012501081451773643,,0.53500000000000003,-0.2546614408493042,
1.075,0.013102094642817974,,0.53749999999999998,-0.26059946417808533,
1.0800000000000001,0.013462702743709087,,0.54000000000000004,-0.27180236577987671,
1.085,0.013390581123530865,,0.54249999999999998,-0.27692300081253052,
1.0900000000000001,0.012837648391723633,,0.54500000000000004,-0.2817070484161377,
1.095,0.011587540619075298,,0.54749999999999999,-0.28613051772117615,
1.1000000000000001,0.010938446037471294,,0.55000000000000004,-0.29408794641494751,
1.105,0.011323094367980957,,0.55249999999999999,-0.29752573370933533,
1.1100000000000001,0.012981891632080078,,0.55500000000000005,-0.30050677061080933,
1.115,0.017573636025190353,,0.5575,-0.30291080474853516,
1.1200000000000001,0.021347999572753906,,0.56000000000000005,-0.30512255430221558,
1.125,0.026228230446577072,,0.5625,-0.30449748039245605,
1.1299999999999999,0.028007229790091515,,0.56499999999999995,-0.3024059534072876,
1.135,0.028175514191389084,,0.5675,-0.29867967963218689,
1.1399999999999999,0.027334094047546387,,0.56999999999999995,-0.28574585914611816,
1.145,0.026108026504516602,,0.57250000000000001,-0.27651429176330566,
1.1499999999999999,0.025675296783447266,,0.57499999999999996,-0.26552778482437134,
1.155,0.024665594100952148,,0.57750000000000001,-0.25295457243919373,
1.1599999999999999,0.022982757538557053,,0.57999999999999996,-0.22415399551391602,
1.165,0.018775662407279015,,0.58250000000000002,-0.20855168998241425,
1.1699999999999999,0.015890797600150108,,0.58499999999999996,-0.19258877635002136,
1.175,0.014207959175109863,,0.58750000000000002,-0.17655372619628906,
1.1799999999999999,0.015866756439208984,,0.58999999999999997,-0.14539718627929688,
1.1850000000000001,0.021684568375349045,,0.59250000000000003,-0.13061225414276123,
1.1899999999999999,0.025771459564566612,,0.59499999999999997,-0.11650045961141586,
1.1950000000000001,0.028007229790091515,,0.59750000000000003,-0.10306179523468018,
1.2,0.025194486603140831,,0.59999999999999998,-0.078300043940544128,
1.2050000000000001,0.014472405426204205,,0.60250000000000004,-0.066976949572563171,
1.21,0.0046638650819659233,,0.60499999999999998,-0.05642315000295639,
1.2150000000000001,-0.0092315673828125,,0.60750000000000004,-0.046686731278896332,
1.22,-0.015073418617248535,,0.60999999999999999,-0.030170878395438194,
1.2250000000000001,-0.015145540237426758,,0.61250000000000004,-0.023559730499982834,
1.23,-0.00891904067248106,,0.61499999999999999,-0.018150608986616135,
1.2350000000000001,0.0076208515092730522,,0.61750000000000005,-0.013871392235159874,
1.24,0.020939311012625694,,0.62,-0.0082218647003173828,
1.2450000000000001,0.039450526237487793,,0.62250000000000005,-0.0064188241958618164,
1.25,0.048369567841291428,,0.625,-0.0048561892472207546,
1.2549999999999999,0.054043136537075043,,0.62749999999999995,-0.0032935540657490492,
1.26,0.052360296249389648,,0.63,0.00086545944213867188,
1.2649999999999999,0.044258635491132736,,0.63249999999999995,0.0037262837868183851,
1.27,0.039282243698835373,,0.63500000000000001,0.0071160001680254936,
1.2749999999999999,0.044090352952480316,,0.63749999999999996,0.010818243026733398,
1.28,0.063010260462760925,,0.64000000000000001,0.018415054306387901,
1.2849999999999999,0.12099604308605194,,0.64249999999999996,0.021684568375349045,
1.29,0.17357270419597626,,0.64500000000000002,0.024256905540823936,
1.2949999999999999,0.24095833301544189,,0.64749999999999996,0.025915702804923058,
1.3,0.2485070675611496,,0.65000000000000002,0.026156108826398849,
1.3049999999999999,0.15188813209533691,,0.65249999999999997,0.024737715721130371,
1.3100000000000001,-4.8081081331474707e-05,,0.65500000000000003,0.022501945495605469,
1.3149999999999999,-0.33524534106254578,,0.65749999999999997,0.019617080688476562,
1.3200000000000001,-0.58257442712783813,,0.66000000000000003,0.012933811172842979,
1.325,-0.87250334024429321,,0.66249999999999998,0.0096642971038818359,
1.3300000000000001,-0.94909650087356567,,0.66500000000000004,0.0067794322967529297,
1.335,-0.84211611747741699,,0.66749999999999998,0.0044715404510498047,
1.3400000000000001,-0.64493560791015625,,0.67000000000000004,0.002259810920804739,
1.345,-0.2660326361656189,,0.67249999999999999,0.002476175781339407,
1.3500000000000001,-0.031445026397705078,,0.67500000000000004,0.0035580000840127468,
1.355,0.20376762747764587,,0.67749999999999999,0.0054331622086465359,
1.3600000000000001,0.26838859915733337,,0.68000000000000005,0.010746121406555176,
1.365,0.26011866331100464,,0.6825,0.013727148994803429,
1.3700000000000001,0.21915356814861298,,0.68500000000000005,0.016612013801932335,
1.375,0.15506148338317871,,0.6875,0.019160311669111252,
1.3799999999999999,0.1252271831035614,,0.68999999999999995,0.022477906197309494,
1.385,0.10181169211864471,,0.6925,0.023054879158735275,
1.3899999999999999,0.094960138201713562,,0.69499999999999995,0.02291063591837883,
1.395,0.088709592819213867,,0.69750000000000001,0.022117298096418381,
1.3999999999999999,0.084526538848876953,,0.69999999999999996,0.019160311669111252,
1.405,0.077554784715175629,,0.70250000000000001,0.017309188842773438,
1.4099999999999999,0.073083244264125824,,0.70499999999999996,0.015434026718139648,
1.415,0.067794322967529297,,0.70750000000000002,0.013679067604243755,
1.4199999999999999,0.065390273928642273,,0.70999999999999996,0.010842284187674522,
1.425,0.062553487718105316,,0.71250000000000002,0.0098325815051794052,
1.4299999999999999,0.060317717492580414,,0.71499999999999997,0.0090873241424560547,
1.4350000000000001,0.055269204080104828,,0.71750000000000003,0.0085343923419713974,
1.4399999999999999,0.050797663629055023,,0.71999999999999997,0.0077170133590698242,
1.4450000000000001,0.043609540909528732,,0.72250000000000003,0.0073083243332803249,
1.45,0.039234161376953125,,0.72499999999999998,0.0068034729920327663,
1.4550000000000001,0.033704839646816254,,0.72750000000000004,0.0061784191057085991,
1.46,0.030194919556379318,,0.72999999999999998,0.0044955811463296413,
1.4650000000000001,0.024040540680289268,,0.73250000000000004,0.0035099189262837172,
1.47,0.018895864486694336,,0.73499999999999999,0.0024521350860595703,
1.4750000000000001,0.0097845001146197319,,0.73750000000000004,0.0014424324035644531,
1.48,0.0030771892052143812,,0.73999999999999999,-0.00048081082059070468,
1.4850000000000001,-0.0079574193805456161,,0.74250000000000005,-0.0013462703209370375,
1.49,-0.016491811722517014,,0.745,-0.0021876893006265163,
1.4950000000000001,-0.032262407243251801,,0.74750000000000005,-0.0031493108253926039,
1.5,-0.045124094933271408,,0.75,-0.0056735677644610405,
1.5049999999999999,-0.067529879510402679,,0.75249999999999995,-0.0074285268783569336,
1.51,-0.083733201026916504,,0.755,-0.0095681352540850639,
1.5149999999999999,-0.10851900279521942,,0.75749999999999995,-0.014736851677298546,
1.52,-0.12484252452850342,,0.76000000000000001,-0.017501514405012131,
1.5249999999999999,-0.14857053756713867,,0.76249999999999996,-0.020121932029724121,
1.53,-0.16366800665855408,,0.76500000000000001,-0.022405784577131271,
1.5349999999999999,-0.18422266840934753,,0.76749999999999996,-0.025290649384260178,
1.54,-0.19578616321086884,,0.77000000000000002,-0.025723379105329514,
1.5449999999999999,-0.20852765440940857,,0.77249999999999996,-0.025507014244794846,
1.55,-0.21335980296134949,,0.77500000000000002,-0.024809837341308594,
1.5549999999999999,-0.21427333354949951,,0.77749999999999997,-0.022814473137259483,
1.5600000000000001,-0.20994603633880615,,0.78000000000000003,-0.021949013695120811,
1.5649999999999999,-0.19453606009483337,,0.78249999999999997,-0.021420121192932129,
1.5700000000000001,-0.17751535773277283,,0.78500000000000003,-0.021299919113516808,
1.575,-0.14157474040985107,,0.78749999999999998,-0.022189419716596603,
1.5800000000000001,-0.111620232462883,,0.79000000000000004,-0.02291063591837883,
1.585,-0.061135094612836838,,0.79249999999999998,-0.023583769798278809,
1.5900000000000001,-0.026372473686933517,,0.79500000000000004,-0.024016499519348145,
1.595,0.023054879158735275,,0.79749999999999999,-0.023607810959219933,
1.6000000000000001,0.052192013710737228,,0.80000000000000004,-0.022766392678022385,
1.605,0.088204741477966309,,0.80249999999999999,-0.021636486053466797,
1.6100000000000001,0.10678808391094208,,0.80500000000000005,-0.020410418510437012,
1.615,0.12727062404155731,,0.8075,-0.018583338707685471,
1.6200000000000001,0.13703107833862305,,0.81000000000000005,-0.018391013145446777,
1.625,0.14787337183952332,,0.8125,-0.018823742866516113,
1.6299999999999999,0.15352289378643036,,0.81499999999999995,-0.019929608330130577,
1.635,0.16035041213035583,,0.8175,-0.023776095360517502,
1.6399999999999999,0.1638362854719162,,0.81999999999999995,-0.026180148124694824,
1.645,0.16725003719329834,,0.82250000000000001,-0.028632283210754395,
1.6499999999999999,0.16835591197013855,,0.82499999999999996,-0.030988257378339767,
1.655,0.16886076331138611,,0.82750000000000001,-0.034954946488142014,
1.6599999999999999,0.16895692050457001,,0.82999999999999996,-0.036517582833766937,
1.665,0.16929349303245544,,0.83250000000000002,-0.037863850593566895,
1.6699999999999999,0.16972622275352478,,0.83499999999999996,-0.039113961160182953,
1.675,0.17039935290813446,,0.83750000000000002,-0.041878622025251389,
1.6799999999999999,0.17068783938884735,,0.83999999999999997,-0.04365762323141098,
1.6850000000000001,0.17080804705619812,,0.84250000000000003,-0.045749150216579437,
1.6899999999999999,0.1708320826292038,,0.84499999999999997,-0.048201285302639008,
1.6950000000000001,0.17097632586956024,,0.84750000000000003,-0.050965946167707443,
1.7,0.17114460468292236,,0.84999999999999998,-0.056976079940795898,
1.7050000000000001,0.17128884792327881,,0.85250000000000004,-0.059957109391689301,
1.71,0.17119269073009491,,0.85499999999999998,-0.062769852578639984,
1.7150000000000001,0.17078399658203125,,0.85750000000000004,-0.067313514649868011,
1.72,0.17044743895530701,,0.85999999999999999,-0.068924233317375183,
1.7250000000000001,0.17001470923423767,,0.86250000000000004,-0.070054136216640472,
1.73,0.16970217227935791,,0.86499999999999999,-0.070751309394836426,
1.7350000000000001,0.16878864169120789,,0.86750000000000005,-0.070943638682365417,
1.74,0.1675625741481781,,0.87,-0.070631109178066254,
1.7450000000000001,0.16474983096122742,,0.87250000000000005,-0.070150300860404968,
1.75,0.16256213188171387,,0.875,-0.06964544951915741,
1.7549999999999999,0.15972535312175751,,0.87749999999999995,-0.069140598177909851,
1.76,0.15864352881908417,,0.88,-0.069453120231628418,
1.7649999999999999,0.15845119953155518,,0.88249999999999995,-0.070414744317531586,
1.77,0.15895605087280273,,0.88500000000000001,-0.072169706225395203,
1.7749999999999999,0.15967726707458496,,0.88749999999999996,-0.078708730638027191,
1.78,0.15970131754875183,,0.89000000000000001,-0.083564922213554382,
1.7849999999999999,0.15890797972679138,,0.89249999999999996,-0.089406773447990417,
1.79,0.15823483467102051,,0.89500000000000002,-0.096017919480800629,
1.7949999999999999,0.15787422657012939,,0.89749999999999996,-0.11029800027608871,
1.8,0.15845119953155518,,0.90000000000000002,-0.11712551116943359,
1.8049999999999999,0.1605667769908905,,0.90249999999999997,-0.12315969169139862,
1.8100000000000001,0.1623457670211792,,0.90500000000000003,-0.12803992629051208,
1.8149999999999999,0.16436517238616943,,0.90749999999999997,-0.13330480456352234,
1.8200000000000001,0.16460558772087097,,0.91000000000000003,-0.13356924057006836,
1.825,0.16282658278942108,,0.91249999999999998,-0.13236722350120544,
1.8300000000000001,0.16049465537071228,,0.91500000000000004,-0.1299872100353241,
1.835,0.15650391578674316,,0.91749999999999998,-0.12296736240386963,
1.8400000000000001,0.15441238880157471,,0.92000000000000004,-0.11900067329406738,
1.845,0.15313825011253357,,0.92249999999999999,-0.11503398418426514,
1.8500000000000001,0.15361905097961426,,0.92500000000000004,-0.11125962436199188,
1.855,0.15561442077159882,,0.92749999999999999,-0.10428786277770996,
1.8600000000000001,0.15722513198852539,,0.93000000000000005,-0.10094623267650604,
1.865,0.15941283106803894,,0.9325,-0.097556516528129578,
1.8700000000000001,0.1606629341840744,,0.93500000000000005,-0.093974471092224121,
1.875,0.16239385306835175,,0.9375,-0.090200111269950867,
1.8799999999999999,0.16335546970367432,,0.93999999999999995,-0.082314811646938324,
1.885,0.16405265033245087,,0.9425,-0.078588530421257019,
1.8899999999999999,0.16378819942474365,,0.94499999999999995,-0.075439214706420898,
1.895,0.1623457670211792,,0.94750000000000001,-0.072169706225395203,
1.8999999999999999,0.16111969947814941,,0.94999999999999996,-0.072674557566642761,
1.905,0.15958110988140106,,0.95250000000000001,-0.074790120124816895,
1.9099999999999999,0.15890797972679138,,0.95499999999999996,-0.078444287180900574,
1.915,0.15806655585765839,,0.95750000000000002,-0.088829800486564636,
1.9199999999999999,0.15739342570304871,,0.95999999999999996,-0.094214878976345062,
1.925,0.15638372302055359,,0.96250000000000002,-0.098397932946681976,
1.9299999999999999,0.15616735816001892,,0.96499999999999997,-0.10034521669149399,
1.9350000000000001,0.15722513198852539,,0.96750000000000003,-0.093084976077079773,
1.9399999999999999,0.15878777205944061,,0.96999999999999997,-0.082242690026760101,
1.9450000000000001,0.16152839362621307,,0.97250000000000003,-0.066087447106838226,
1.95,0.1629948616027832,,0.97499999999999998,-0.044883690774440765,
1.9550000000000001,0.16417285799980164,,0.97750000000000004,0.0085343923419713974,
1.96,0.16446134448051453,,0.97999999999999998,0.037142634391784668,
1.9650000000000001,0.16443729400634766,,0.98250000000000004,0.063635312020778656,
1.97,0.16398052871227264,,0.98499999999999999,0.08491118997335434,
1.9750000000000001,0.16164860129356384,,0.98750000000000004,0.098446011543273926,
1.98,0.15847525000572205,,0.98999999999999999,0.08411785215139389,
1.9850000000000001,0.15176793932914734,,0.99250000000000005,0.051927566528320312,
1.99,0.14722427725791931,,0.995,-0.00012020270514767617,
1.9950000000000001,0.14320950210094452,,0.99750000000000005,-0.16612014174461365,
2,0.14344990253448486,65.502182006835938,1,-0.27776440978050232,36.0721435546875
2.0049999999999999,0.14763295650482178,,1.0024999999999999,-0.40426573157310486,
2.0099999999999998,0.15104672312736511,,1.0049999999999999,-0.54040729999542236,
2.0150000000000001,0.15270552039146423,,1.0075000000000001,-0.67945778369903564,
2.02,0.14965236186981201,,1.01,-0.93450391292572021,
2.0249999999999999,0.13856968283653259,,1.0125,-1.0338153839111328,
2.0299999999999998,0.12876114249229431,,1.0149999999999999,-1.1041580438613892,
2.0350000000000001,0.11556287854909897,,1.0175000000000001,-1.1372618675231934,
2.04,0.11070668697357178,,1.02,-1.0959601402282715,
2.0449999999999999,0.11207699775695801,,1.0225,-1.0182371139526367,
2.0499999999999998,0.11859198659658432,,1.0249999999999999,-0.90926134586334229,
2.0550000000000002,0.13397793471813202,,1.0275000000000001,-0.62976598739624023,
2.0600000000000001,0.14561355113983154,,1.03,-0.47852694988250732,
2.0649999999999999,0.16114374995231628,,1.0325,-0.33274513483047485,
2.0699999999999998,0.16833186149597168,,1.0349999999999999,-0.20102700591087341,
2.0750000000000002,0.17220239341259003,,1.0375000000000001,-0.0037984054069966078,
2.0800000000000001,0.16991853713989258,,1.04,0.055990420281887054,
2.085,0.16208133101463318,,1.0425,0.090368390083312988,
2.0899999999999999,0.1583310067653656,,1.0449999999999999,0.10236462205648422,
2.0950000000000002,0.16633650660514832,,1.0475000000000001,0.07808367908000946,
2.1000000000000001,0.18734793365001678,,1.05,0.052360296249389648,
2.105,0.2452375590801239,,1.0525,0.024136703461408615,
2.1099999999999999,0.29322248697280884,,1.0549999999999999,-0.0028608243446797132,
2.1150000000000002,0.34459710121154785,,1.0575000000000001,-0.044114392250776291,
2.1200000000000001,0.33632716536521912,,1.0600000000000001,-0.056879919022321701,
2.125,0.21569173038005829,,1.0625,-0.064933501183986664,
2.1299999999999999,0.054499905556440353,,1.0649999999999999,-0.069405041635036469,
2.1349999999999998,-0.27233123779296875,,1.0674999999999999,-0.072818800806999207,
2.1400000000000001,-0.4958842396736145,,1.0700000000000001,-0.073996782302856445,
2.145,-0.72876495122909546,,1.0725,-0.075775787234306335,
2.1499999999999999,-0.76331120729446411,,1.075,-0.078444287180900574,
2.1549999999999998,-0.60969215631484985,,1.0774999999999999,-0.086161300539970398,
2.1600000000000001,-0.40234249830245972,,1.0800000000000001,-0.090704962611198425,
2.165,-0.042984485626220703,,1.0825,-0.095344781875610352,
2.1699999999999999,0.16191303730010986,,1.085,-0.099864408373832703,
2.1749999999999998,0.34690499305725098,,1.0874999999999999,-0.1083507165312767,
2.1800000000000002,0.38462460041046143,,1.0900000000000001,-0.11246164888143539,
2.1850000000000001,0.35447776317596436,,1.0925,-0.11662065982818604,
2.1899999999999999,0.31026721000671387,,1.095,-0.12089987844228745,
2.1949999999999998,0.25026202201843262,,1.0974999999999999,-0.12984296679496765,
2.2000000000000002,0.22393763065338135,,1.1000000000000001,-0.13426642119884491,
2.2050000000000001,0.20179629325866699,,1.1025,-0.13835331797599792,
2.21,0.19309362769126892,,1.105,-0.14191131293773651,
2.2149999999999999,0.18299660086631775,,1.1074999999999999,-0.14669537544250488,
2.2200000000000002,0.17746727168560028,,1.1100000000000001,-0.14782528579235077,
2.2250000000000001,0.17150521278381348,,1.1125,-0.14823397994041443,
2.23,0.16878864169120789,,1.115,-0.14820992946624756,
2.2349999999999999,0.16501426696777344,,1.1174999999999999,-0.14813780784606934,
2.2400000000000002,0.16196112334728241,,1.1200000000000001,-0.14873883128166199,
2.2450000000000001,0.15686452388763428,,1.1225000000000001,-0.15013317763805389,
2.25,0.15383541584014893,,1.125,-0.1524651050567627,
2.2549999999999999,0.15066206455230713,,1.1274999999999999,-0.15977343916893005,
2.2599999999999998,0.149195596575737,,1.1299999999999999,-0.16436517238616943,
2.2650000000000001,0.14638285338878632,,1.1325000000000001,-0.1692454069852829,
2.27,0.14318546652793884,,1.135,-0.17410159111022949,
2.2749999999999999,0.13611754775047302,,1.1375,-0.18270811438560486,
2.2799999999999998,0.13041993975639343,,1.1399999999999999,-0.18616995215415955,
2.2850000000000001,0.1215008944272995,,1.1425000000000001,-0.18905481696128845,
2.29,0.1155388355255127,,1.145,-0.19145886600017548,
2.2949999999999999,0.10570625960826874,,1.1475,-0.19537746906280518,
2.2999999999999998,0.097893081605434418,,1.1499999999999999,-0.19727668166160583,
2.3050000000000002,0.083564922213554382,,1.1525000000000001,-0.19936820864677429,
2.3100000000000001,0.07243414968252182,,1.155,-0.20174822211265564,
2.3149999999999999,0.054091215133666992,,1.1575,-0.2075660228729248,
2.3199999999999998,0.041013162583112717,,1.1599999999999999,-0.21105191111564636,
2.3250000000000002,0.020025771111249924,,1.1625000000000001,-0.21487435698509216,
2.3300000000000001,0.0050004324875771999,,1.165,-0.21900932490825653,
2.335,-0.018751621246337891,,1.1675,-0.22819280624389648,
2.3399999999999999,-0.03476262092590332,,1.1699999999999999,-0.23319324851036072,
2.3450000000000002,-0.057793460786342621,,1.1725000000000001,-0.23845812678337097,
2.3500000000000001,-0.07209758460521698,,1.175,-0.24398744106292725,
2.355,-0.091810822486877441,,1.1775,-0.25569519400596619,
2.3599999999999999,-0.10371088981628418,,1.1799999999999999,-0.26177746057510376,
2.3650000000000002,-0.11837562173604965,,1.1825000000000001,-0.26795586943626404,
2.3700000000000001,-0.12453000247478485,,1.1850000000000001,-0.27420639991760254,
2.375,-0.12501081824302673,,1.1875,-0.28694790601730347,
2.3799999999999999,-0.11801501363515854,,1.1899999999999999,-0.29353499412536621,
2.3849999999999998,-0.095945797860622406,,1.1924999999999999,-0.30036252737045288,
2.3900000000000001,-0.074405476450920105,,1.1950000000000001,-0.30747851729393005,
2.395,-0.034882824867963791,,1.1975,-0.32279235124588013,
2.3999999999999999,-0.0055533647537231445,,1.2,-0.33096611499786377,
2.4049999999999998,0.040340028703212738,,1.2024999999999999,-0.33935627341270447,
2.4100000000000001,0.071232125163078308,,1.2050000000000001,-0.34781855344772339,
2.415,0.11638025939464569,,1.2075,-0.36431035399436951,
2.4199999999999999,0.14448365569114685,,1.21,-0.37202736735343933,
2.4249999999999998,0.18078486621379852,,1.2124999999999999,-0.3792395293712616,
2.4300000000000002,0.19963264465332031,,1.2150000000000001,-0.38589876890182495,
2.4350000000000001,0.21876892447471619,,1.2175,-0.39789497852325439,
2.4399999999999999,0.22614936530590057,,1.22,-0.40344834327697754,
2.4449999999999998,0.23242394626140594,,1.2224999999999999,-0.40890556573867798,
2.4500000000000002,0.23569345474243164,,1.2250000000000001,-0.41436275839805603,
2.4550000000000001,0.24194400012493134,,1.2275,-0.425301194190979,
2.46,0.24728100001811981,,1.23,-0.430614173412323,
2.4649999999999999,0.2554067075252533,,1.2324999999999999,-0.43556651473045349,
2.4700000000000002,0.25944551825523376,,1.2350000000000001,-0.43986976146697998,
2.4750000000000001,0.26172935962677002,,1.2375,-0.44547122716903687,
2.48,0.26064753532409668,,1.24,-0.44626456499099731,
2.4849999999999999,0.25675296783447266,,1.2424999999999999,-0.44549524784088135,
2.4900000000000002,0.25410851836204529,,1.2450000000000001,-0.443115234375,
2.4950000000000001,0.25237759947776794,,1.2475000000000001,-0.43347498774528503,
2.5,0.25326710939407349,,1.25,-0.42631089687347412,
2.5049999999999999,0.25699338316917419,,1.2524999999999999,-0.41772842407226562,
2.5099999999999998,0.25992631912231445,,1.2549999999999999,-0.4077756404876709,
2.5150000000000001,0.26264292001724243,,1.2575000000000001,-0.38404762744903564,
2.52,0.26240250468254089,,1.26,-0.3704647421836853,
2.5249999999999999,0.25870025157928467,,1.2625,-0.35584807395935059,
2.5299999999999998,0.25463742017745972,,1.2649999999999999,-0.34039002656936646,
2.5350000000000001,0.24807433784008026,,1.2675000000000001,-0.3078150749206543,
2.54,0.2444922924041748,,1.27,-0.29129922389984131,
2.5449999999999999,0.24134299159049988,,1.2725,-0.27507185935974121,
2.5499999999999998,0.2405736893415451,,1.2749999999999999,-0.25946956872940063,
2.5550000000000002,0.23994863033294678,,1.2775000000000001,-0.23112575709819794,
2.5600000000000001,0.23881873488426208,,1.28,-0.21872083842754364,
2.5649999999999999,0.23475587368011475,,1.2825,-0.2075660228729248,
2.5699999999999998,0.2305968701839447,,1.2849999999999999,-0.19754111766815186,
2.5750000000000002,0.22398571670055389,,1.2875000000000001,-0.18028001487255096,
2.5800000000000001,0.22016327083110809,,1.29,-0.17253896594047546,
2.585,0.22042772173881531,,1.2925,-0.16513447463512421,
2.5899999999999999,0.22482714056968689,,1.2949999999999999,-0.15785019099712372,
2.5950000000000002,0.22908231616020203,,1.2975000000000001,-0.14337778091430664,
2.6000000000000001,0.23410677909851074,,1.3,-0.13626179099082947,
2.605,0.23506841063499451,,1.3025,-0.12941023707389832,
2.6099999999999999,0.23232778906822205,,1.3049999999999999,-0.1229914054274559,
2.6150000000000002,0.22869765758514404,,1.3075000000000001,-0.11238952726125717,
2.6200000000000001,0.22331258654594421,,1.3100000000000001,-0.10851900279521942,
2.625,0.22131721675395966,,1.3125,-0.10573029518127441,
2.6299999999999999,0.22172591090202332,,1.3149999999999999,-0.10397534072399139,
2.6349999999999998,0.22376935184001923,,1.3174999999999999,-0.10310988128185272,
2.6400000000000001,0.22737543284893036,,1.3200000000000001,-0.10361473262310028,
2.645,0.22884190082550049,,1.3225,-0.10438402742147446,
2.6499999999999999,0.2284572571516037,,1.325,-0.10520140826702118,
2.6549999999999998,0.2267744243144989,,1.3274999999999999,-0.10628323256969452,
2.6600000000000001,0.22384147346019745,,1.3300000000000001,-0.10633131116628647,
2.665,0.22263944149017334,,1.3325,-0.10604282468557358,
2.6699999999999999,0.22273561358451843,,1.335,-0.1054658517241478,
2.6749999999999998,0.22374531626701355,,1.3374999999999999,-0.1037830114364624,
2.6800000000000002,0.22525987029075623,,1.3400000000000001,-0.10291755199432373,
2.6850000000000001,0.22559642791748047,,1.3425,-0.10214825719594955,
2.6899999999999999,0.2247309684753418,,1.345,-0.1015472412109375,
2.6949999999999998,0.22357702255249023,,1.3474999999999999,-0.10082602500915527,
2.7000000000000002,0.22191822528839111,,1.3500000000000001,-0.10065774619579315,
2.7050000000000001,0.22119700908660889,,1.3525,-0.10058562457561493,
2.71,0.220908522605896,,1.355,-0.10058562457561493,
2.7149999999999999,0.22117297351360321,,1.3574999999999999,-0.10065774619579315,
2.7200000000000002,0.22182206809520721,,1.3600000000000001,-0.10077794641256332,
2.7250000000000001,0.22227883338928223,,1.3625,-0.10099431127309799,
2.73,0.22261540591716766,,1.365,-0.10135491937398911,
2.7349999999999999,0.22249519824981689,,1.3674999999999999,-0.10258098691701889,
2.7400000000000002,0.22215864062309265,,1.3700000000000001,-0.10351856797933578,
2.7450000000000001,0.22134125232696533,,1.3725000000000001,-0.10464847087860107,
2.75,0.22035560011863708,,1.375,-0.10592262446880341,
2.7549999999999999,0.21949014067649841,,1.3774999999999999,-0.10873536765575409,
2.7599999999999998,0.21742264926433563,,1.3799999999999999,-0.11017780005931854,
2.7650000000000001,0.21545132994651794,,1.3825000000000001,-0.11159618943929672,
2.77,0.21235010027885437,,1.385,-0.11296650022268295,
2.7749999999999999,0.21095573902130127,,1.3875,-0.11558692157268524,
2.7799999999999998,0.21112403273582458,,1.3899999999999999,-0.11686106771230698,
2.7850000000000001,0.21285495162010193,,1.3925000000000001,-0.11815925687551498,
2.79,0.21641294658184052,,1.395,-0.11945744603872299,
2.7949999999999999,0.21790346503257751,,1.3975,-0.12205382436513901,
2.7999999999999998,0.21653315424919128,,1.3999999999999999,-0.12327989190816879,
2.8050000000000002,0.21283090114593506,,1.4025000000000001,-0.12443383783102036,
2.8100000000000001,0.20453691482543945,,1.405,-0.12544354796409607,
2.8149999999999999,0.19883930683135986,,1.4075,-0.1270061731338501,
2.8199999999999998,0.1930215060710907,,1.4099999999999999,-0.12758314609527588,
2.8250000000000002,0.19181947410106659,,1.4125000000000001,-0.12803992629051208,
2.8300000000000001,0.19357442855834961,,1.415,-0.12844860553741455,
2.835,0.19573807716369629,,1.4175,-0.12926599383354187,
2.8399999999999999,0.19718050956726074,,1.4199999999999999,-0.12972275912761688,
2.8450000000000002,0.19528131186962128,,1.4225000000000001,-0.13020357489585876,
2.8500000000000001,0.18645843863487244,,1.425,-0.13066034018993378,
2.855,0.17705857753753662,,1.4275,-0.1312853991985321,
2.8599999999999999,0.16095142066478729,,1.4299999999999999,-0.1312853991985321,
2.8650000000000002,0.15181601047515869,,1.4325000000000001,-0.13102094829082489,
2.8700000000000001,0.14549335837364197,,1.4350000000000001,-0.13046801090240479,
2.875,0.14794549345970154,,1.4375,-0.12864093482494354,
2.8799999999999999,0.16109566390514374,,1.4399999999999999,-0.1275591105222702,
2.8849999999999998,0.17405351996421814,,1.4424999999999999,-0.12654940783977509,
2.8900000000000001,0.19434373080730438,,1.4450000000000001,-0.12578010559082031,
2.895,0.20518600940704346,,1.4475,-0.12537142634391785,
2.8999999999999999,0.21331171691417694,,1.45,-0.12587627768516541,
2.9049999999999998,0.21230201423168182,,1.4524999999999999,-0.12683789432048798,
2.9100000000000001,0.20333489775657654,,1.4550000000000001,-0.12816011905670166,
2.915,0.19674777984619141,,1.4575,-0.13150176405906677,
2.9199999999999999,0.19807001948356628,,1.46,-0.13320863246917725,
2.9249999999999998,0.21420121192932129,,1.4624999999999999,-0.13484339416027069,
2.9300000000000002,0.26723465323448181,,1.4650000000000001,-0.13633391261100769,
2.9350000000000001,0.31565231084823608,,1.4675,-0.1391226053237915,
2.9399999999999999,0.37517666816711426,,1.47,-0.14058908820152283,
2.9449999999999998,0.3767152726650238,,1.4724999999999999,-0.14222383499145508,
2.9500000000000002,0.27240335941314697,,1.4750000000000001,-0.14412304759025574,
2.9550000000000001,0.11861602962017059,,1.4775,-0.14859458804130554,
2.96,-0.20987391471862793,,1.48,-0.15099863708019257,
2.9649999999999999,-0.4451586902141571,,1.4824999999999999,-0.15323440730571747,
2.9700000000000002,-0.70833051204681396,,1.4850000000000001,-0.15508553385734558,
2.9750000000000001,-0.76605182886123657,,1.4875,-0.15688857436180115,
2.98,-0.63983899354934692,,1.49,-0.15655200183391571,
2.9849999999999999,-0.44085544347763062,,1.4924999999999999,-0.15539805591106415,
2.9900000000000002,-0.077554784715175629,,1.4950000000000001,-0.15354692935943604,
2.9950000000000001,0.13789653778076172,,1.4975000000000001,-0.14873883128166199,
3,0.34197670221328735,65.454544067382812,1.5,-0.14633476734161377,
,,,1.5024999999999999,-0.14433941245079041,
,,,1.5049999999999999,-0.1429450511932373,
,,,1.5075000000000001,-0.14244019985198975,
,,,1.51,-0.14325758814811707,
,,,1.5125,-0.14467597007751465,
,,,1.5149999999999999,-0.14645497500896454,
,,,1.5175000000000001,-0.15034954249858856,
,,,1.52,-0.15210449695587158,
,,,1.5225,-0.15359501540660858,
,,,1.5249999999999999,-0.15477299690246582,
,,,1.5275000000000001,-0.15638372302055359,
,,,1.53,-0.1569366455078125,
,,,1.5325,-0.15744149684906006,
,,,1.5349999999999999,-0.15799443423748016,
,,,1.5375000000000001,-0.15936474502086639,
,,,1.54,-0.16020616888999939,
,,,1.5425,-0.16111969947814941,
,,,1.5449999999999999,-0.16203324496746063,
,,,1.5475000000000001,-0.16354779899120331,
,,,1.55,-0.16400456428527832,
,,,1.5525,-0.16422092914581299,
,,,1.5549999999999999,-0.16414880752563477,
,,,1.5575000000000001,-0.16333143413066864,
,,,1.5600000000000001,-0.16282658278942108,
,,,1.5625,-0.16251406073570251,
,,,1.5649999999999999,-0.16261021792888641,
,,,1.5674999999999999,-0.16513447463512421,
,,,1.5700000000000001,-0.16799530386924744,
,,,1.5725,-0.1721302717924118,
,,,1.575,-0.17749130725860596,
,,,1.5774999999999999,-0.19133865833282471,
,,,1.5800000000000001,-0.19912779331207275,
,,,1.5825,-0.20686885714530945,
,,,1.585,-0.21403293311595917,
,,,1.5874999999999999,-0.22456268966197968,
,,,1.5900000000000001,-0.22715906798839569,
,,,1.5925,-0.2277120053768158,
,,,1.595,-0.22617340087890625,
,,,1.5974999999999999,-0.21780729293823242,
,,,1.6000000000000001,-0.21170100569725037,
,,,1.6025,-0.20487348735332489,
,,,1.605,-0.19782960414886475,
,,,1.6074999999999999,-0.18441498279571533,
,,,1.6100000000000001,-0.1785731315612793,
,,,1.6125,-0.17342846095561981,
,,,1.615,-0.16900500655174255,
,,,1.6174999999999999,-0.16191303730010986,
,,,1.6200000000000001,-0.15905222296714783,
,,,1.6225000000000001,-0.15655200183391571,
,,,1.625,-0.15436431765556335,
,,,1.6274999999999999,-0.15104672312736511,
,,,1.6299999999999999,-0.15010914206504822,
,,,1.6325000000000001,-0.14982065558433533,
,,,1.635,-0.15030145645141602,
,,,1.6375,-0.15371522307395935,
,,,1.6399999999999999,-0.15643179416656494,
,,,1.6425000000000001,-0.15941283106803894,
,,,1.645,-0.16210536658763885,
,,,1.6475,-0.1637401282787323,
,,,1.6499999999999999,-0.16097545623779297,
,,,1.6525000000000001,-0.1547008752822876,
,,,1.655,-0.14426729083061218,
,,,1.6575,-0.11015375703573227,
,,,1.6599999999999999,-0.087267160415649414,
,,,1.6625000000000001,-0.06200055405497551,
,,,1.665,-0.036301217973232269,
,,,1.6675,0.0059860944747924805,
,,,1.6699999999999999,0.016347568482160568,
,,,1.6725000000000001,0.015097459778189659,
,,,1.675,-0.00098566222004592419,
,,,1.6775,-0.087579689919948578,
,,,1.6799999999999999,-0.16092738509178162,
,,,1.6825000000000001,-0.25408446788787842,
,,,1.6850000000000001,-0.49021065235137939,
,,,1.6875,-0.62421262264251709,
,,,1.6899999999999999,-0.76045036315917969,
,,,1.6924999999999999,-0.8911588191986084,
,,,1.6950000000000001,-1.1033165454864502,
,,,1.6975,-1.1696203947067261,
,,,1.7,-1.2015461921691895,
,,,1.7024999999999999,-1.1959447860717773,
,,,1.7050000000000001,-1.1524074077606201,
,,,1.7075,-0.96409779787063599,
,,,1.71,-0.83213925361633301,
,,,1.7124999999999999,-0.68662190437316895,
,,,1.7150000000000001,-0.39395233988761902,
,,,1.7175,-0.26461422443389893,
,,,1.72,-0.15575866401195526,
,,,1.7224999999999999,-0.071304246783256531,
,,,1.7250000000000001,0.021612446755170822,
,,,1.7275,0.034257769584655762,
,,,1.73,0.029882391914725304,
,,,1.7324999999999999,0.013630986213684082,
,,,1.7350000000000001,-0.034810703247785568,
,,,1.7375,-0.059067606925964355,
,,,1.74,-0.07995884120464325,
,,,1.7424999999999999,-0.096474692225456238,
,,,1.7450000000000001,-0.11681298911571503,
,,,1.7475000000000001,-0.12239038944244385,
,,,1.75,-0.12640516459941864,
,,,1.7524999999999999,-0.12981891632080078,
,,,1.7549999999999999,-0.13722340762615204,
,,,1.7575000000000001,-0.14150261878967285,
,,,1.76,-0.1459260880947113,
,,,1.7625,-0.15020529925823212,
,,,1.7649999999999999,-0.15705685317516327,
,,,1.7675000000000001,-0.15934070944786072,
,,,1.77,-0.16087929904460907,
,,,1.7725,-0.16186496615409851,
,,,1.7749999999999999,-0.16306698322296143,
,,,1.7775000000000001,-0.16378819942474365,
,,,1.78,-0.16484598815441132,
,,,1.7825,-0.16633650660514832,
,,,1.7849999999999999,-0.1707359254360199,
,,,1.7875000000000001,-0.1736207902431488,
,,,1.79,-0.1768902987241745,
,,,1.7925,-0.18042425811290741,
,,,1.7949999999999999,-0.18804511427879333,
,,,1.7975000000000001,-0.19189159572124481,
,,,1.8,-0.19559383392333984,
,,,1.8025,-0.19905567169189453,
,,,1.8049999999999999,-0.20477733016014099,
,,,1.8075000000000001,-0.20689289271831512,
,,,1.8100000000000001,-0.20855168998241425,
,,,1.8125,-0.20975372195243835,
,,,1.8149999999999999,-0.21150867640972137,
,,,1.8174999999999999,-0.21242222189903259,
,,,1.8200000000000001,-0.21357616782188416,
,,,1.8225,-0.21513879299163818,
,,,1.825,-0.21720628440380096,
,,,1.8274999999999999,-0.22280773520469666,
,,,1.8300000000000001,-0.22617340087890625,
,,,1.8325,-0.22973141074180603,
,,,1.835,-0.23687145113945007,
,,,1.8374999999999999,-0.24018904566764832,
,,,1.8400000000000001,-0.24333834648132324,
,,,1.8425,-0.24629533290863037,
,,,1.845,-0.2520410418510437,
,,,1.8474999999999999,-0.25504609942436218,
,,,1.8500000000000001,-0.25831562280654907,
,,,1.8525,-0.26189765334129333,
,,,1.855,-0.27011951804161072,
,,,1.8574999999999999,-0.27475935220718384,
,,,1.8600000000000001,-0.27968764305114746,
,,,1.8625,-0.28492850065231323,
,,,1.865,-0.29622754454612732,
,,,1.8674999999999999,-0.30228576064109802,
,,,1.8700000000000001,-0.30863246321678162,
,,,1.8725000000000001,-0.3152676522731781,
,,,1.875,-0.32928329706192017,
,,,1.8774999999999999,-0.33651947975158691,
,,,1.8799999999999999,-0.3438037633895874,
,,,1.8825000000000001,-0.35103997588157654,
,,,1.885,-0.35820406675338745,
,,,1.8875,-0.37212353944778442,
,,,1.8899999999999999,-0.37892699241638184,
,,,1.8925000000000001,-0.38570642471313477,
,,,1.895,-0.39940953254699707,
,,,1.8975,-0.40638130903244019,
,,,1.8999999999999999,-0.41337710618972778,
,,,1.9025000000000001,-0.42030078172683716,
,,,1.905,-0.43345093727111816,
,,,1.9075,-0.43934088945388794,
,,,1.9099999999999999,-0.44453364610671997,
,,,1.9125000000000001,-0.44890901446342468,
,,,1.915,-0.45494318008422852,
,,,1.9175,-0.45652985572814941,
,,,1.9199999999999999,-0.45717895030975342,
,,,1.9225000000000001,-0.4569145143032074,
,,,1.925,-0.45350074768066406,
,,,1.9275,-0.45030337572097778,
,,,1.9299999999999999,-0.44600009918212891,
,,,1.9325000000000001,-0.44054290652275085,
,,,1.9350000000000001,-0.42573392391204834,
,,,1.9375,-0.41631004214286804,
,,,1.9399999999999999,-0.40558797121047974,
,,,1.9424999999999999,-0.39363980293273926,
,,,1.9450000000000001,-0.36666631698608398,
,,,1.9475,-0.35207372903823853,
,,,1.95,-0.33704838156700134,
,,,1.9524999999999999,-0.32183071970939636,
,,,1.9550000000000001,-0.29178005456924438,
,,,1.9575,-0.27728360891342163,
,,,1.96,-0.26336413621902466,
,,,1.9624999999999999,-0.25006970763206482,
,,,1.9650000000000001,-0.22557239234447479,
,,,1.9675,-0.21429738402366638,
,,,1.97,-0.20362338423728943,
,,,1.9724999999999999,-0.19347827136516571,
,,,1.9750000000000001,-0.17446219921112061,
,,,1.9775,-0.165519118309021,
,,,1.98,-0.15696069598197937,
,,,1.9824999999999999,-0.14883498847484589,
,,,1.9850000000000001,-0.13443470001220703,
,,,1.9875,-0.12844860553741455,
,,,1.99,-0.12342413514852524,
,,,1.9924999999999999,-0.11950552463531494,
,,,1.9950000000000001,-0.11491378396749496,
,,,1.9975000000000001,-0.11407236754894257,
,,,2,-0.11390408128499985,42.857143402099609
,,,2.0024999999999999,-0.11421661078929901,
,,,2.0049999999999999,-0.11505802720785141,
,,,2.0074999999999998,-0.11517822742462158,
,,,2.0099999999999998,-0.11486570537090302,
,,,2.0125000000000002,-0.11416852474212646,
,,,2.0150000000000001,-0.11181255429983139,
,,,2.0175000000000001,-0.11053840816020966,
,,,2.02,-0.10945658385753632,
,,,2.0225,-0.10873536765575409,
,,,2.0249999999999999,-0.10883152484893799,
,,,2.0274999999999999,-0.10962486267089844,
,,,2.0299999999999998,-0.11080285161733627,
,,,2.0325000000000002,-0.11214911937713623,
,,,2.0350000000000001,-0.1146012544631958,
,,,2.0375000000000001,-0.1153465136885643,
,,,2.04,-0.11561095714569092,
,,,2.0425,-0.1153465136885643,
,,,2.0449999999999999,-0.11359155178070068,
,,,2.0474999999999999,-0.1123654842376709,
,,,2.0499999999999998,-0.11111538112163544,
,,,2.0525000000000002,-0.1100335568189621,
,,,2.0550000000000002,-0.10892768949270248,
,,,2.0575000000000001,-0.10899981111288071,
,,,2.0600000000000001,-0.10948061943054199,
,,,2.0625,-0.11029800027608871,
,,,2.0649999999999999,-0.11238952726125717,
,,,2.0674999999999999,-0.11337518692016602,
,,,2.0699999999999998,-0.11414448916912079,
,,,2.0724999999999998,-0.11457721889019012,
,,,2.0750000000000002,-0.11448105424642563,
,,,2.0775000000000001,-0.11404832452535629,
,,,2.0800000000000001,-0.11351943016052246,
,,,2.0825,-0.11306266486644745,
,,,2.085,-0.1130145788192749,
,,,2.0874999999999999,-0.11366367340087891,
,,,2.0899999999999999,-0.11486570537090302,
,,,2.0924999999999998,-0.11652450263500214,
,,,2.0950000000000002,-0.12077967822551727,
,,,2.0975000000000001,-0.12301544845104218,
,,,2.1000000000000001,-0.12505888938903809,
,,,2.1025,-0.12671768665313721,
,,,2.105,-0.128592848777771,
,,,2.1074999999999999,-0.12883326411247253,
,,,2.1099999999999999,-0.12868902087211609,
,,,2.1124999999999998,-0.12835244834423065,
,,,2.1150000000000002,-0.12767931818962097,
,,,2.1175000000000002,-0.12758314609527588,
,,,2.1200000000000001,-0.12772738933563232,
,,,2.1225000000000001,-0.12811204791069031,
,,,2.125,-0.12921790778636932,
,,,2.1274999999999999,-0.12969872355461121,
,,,2.1299999999999999,-0.12996315956115723,
,,,2.1324999999999998,-0.1299872100353241,
,,,2.1349999999999998,-0.129241943359375,
,,,2.1375000000000002,-0.128592848777771,
,,,2.1400000000000001,-0.12796780467033386,
,,,2.1425000000000001,-0.12743890285491943,
,,,2.145,-0.12715041637420654,
,,,2.1475,-0.12743890285491943,
,,,2.1499999999999999,-0.12794375419616699,
,,,2.1524999999999999,-0.12856881320476532,
,,,2.1549999999999998,-0.12969872355461121,
,,,2.1575000000000002,-0.12993912398815155,
,,,2.1600000000000001,-0.129891037940979,
,,,2.1625000000000001,-0.12950639426708221,
,,,2.165,-0.12811204791069031,
,,,2.1675,-0.12731871008872986,
,,,2.1699999999999999,-0.12664556503295898,
,,,2.1724999999999999,-0.12614071369171143,
,,,2.1749999999999998,-0.12592434883117676,
,,,2.1775000000000002,-0.12614071369171143,
,,,2.1800000000000002,-0.12647728621959686,
,,,2.1825000000000001,-0.1268138587474823,
,,,2.1850000000000001,-0.12717446684837341,
,,,2.1875,-0.12710234522819519,
,,,2.1899999999999999,-0.12688598036766052,
,,,2.1924999999999999,-0.12659749388694763,
,,,2.1949999999999998,-0.12626092135906219,
,,,2.1974999999999998,-0.12640516459941864,
,,,2.2000000000000002,-0.12683789432048798,
,,,2.2025000000000001,-0.12758314609527588,
,,,2.2050000000000001,-0.12981891632080078,
,,,2.2075,-0.13114115595817566,
,,,2.21,-0.13251146674156189,
,,,2.2124999999999999,-0.13383369147777557,
,,,2.2149999999999999,-0.13626179099082947,
,,,2.2174999999999998,-0.13739168643951416,
,,,2.2200000000000002,-0.13849756121635437,
,,,2.2225000000000001,-0.13962745666503906,
,,,2.2250000000000001,-0.14183919131755829,
,,,2.2275,-0.14282485842704773,
,,,2.23,-0.14364223182201385,
,,,2.2324999999999999,-0.14421920478343964,
,,,2.2349999999999999,-0.1444355696439743,
,,,2.2374999999999998,-0.14421920478343964,
,,,2.2400000000000002,-0.14400283992290497,
,,,2.2425000000000002,-0.14405092597007751,
,,,2.2450000000000001,-0.14609436690807343,
,,,2.2475000000000001,-0.14857053756713867,
,,,2.25,-0.15224874019622803,
,,,2.2524999999999999,-0.15703281760215759,
,,,2.2549999999999999,-0.16912519931793213,
,,,2.2574999999999998,-0.17561614513397217,
,,,2.2599999999999998,-0.18165032565593719,
,,,2.2625000000000002,-0.18669883906841278,
,,,2.2650000000000001,-0.19181947410106659,
,,,2.2675000000000001,-0.19126653671264648,
,,,2.27,-0.18847784399986267,
,,,2.2725,-0.18359760940074921,
,,,2.2749999999999999,-0.16900500655174255,
,,,2.2774999999999999,-0.16025424003601074,
,,,2.2799999999999998,-0.15131115913391113,
,,,2.2825000000000002,-0.14270465075969696,
,,,2.2850000000000001,-0.12835244834423065,
,,,2.2875000000000001,-0.12315969169139862,
,,,2.29,-0.11940936744213104,
,,,2.2925,-0.11700531095266342,
,,,2.2949999999999999,-0.1154426783323288,
,,,2.2974999999999999,-0.11568307876586914,
,,,2.2999999999999998,-0.11626005172729492,
,,,2.3025000000000002,-0.1169331893324852,
,,,2.3050000000000002,-0.11839966475963593,
,,,2.3075000000000001,-0.11928915977478027,
,,,2.3100000000000001,-0.12049119174480438,
,,,2.3125,-0.12207786738872528,
,,,2.3149999999999999,-0.12652537226676941,
,,,2.3174999999999999,-0.12892942130565643,
,,,2.3199999999999998,-0.1308286190032959,
,,,2.3224999999999998,-0.1314777135848999,
,,,2.3250000000000002,-0.12563586235046387,
,,,2.3275000000000001,-0.11743804067373276,
,,,2.3300000000000001,-0.10498504340648651,
,,,2.3325,-0.088084541261196136,
,,,2.335,-0.042960446327924728,
,,,2.3374999999999999,-0.017237067222595215,
,,,2.3399999999999999,0.0079574193805456161,
,,,2.3424999999999998,0.029954513534903526,
,,,2.3450000000000002,0.05197564885020256,
,,,2.3475000000000001,0.045580863952636719,
,,,2.3500000000000001,0.023607810959219933,
,,,2.3525,-0.016227364540100098,
,,,2.355,-0.15383541584014893,
,,,2.3574999999999999,-0.25055050849914551,
,,,2.3599999999999999,-0.36260348558425903,
,,,2.3624999999999998,-0.48547467589378357,
,,,2.3650000000000002,-0.73874175548553467,
,,,2.3675000000000002,-0.85408830642700195,
,,,2.3700000000000001,-0.95135629177093506,
,,,2.3725000000000001,-1.0232856273651123,
,,,2.375,-1.0696598291397095,
,,,2.3774999999999999,-1.0390561819076538,
,,,2.3799999999999999,-0.9736899733543396,
,,,2.3824999999999998,-0.87791246175765991,
,,,2.3849999999999998,-0.62337124347686768,
,,,2.3875000000000002,-0.48232537508010864,
,,,2.3900000000000001,-0.34450095891952515,
,,,2.3925000000000001,-0.21819195151329041,
,,,2.395,-0.024473270401358604,
,,,2.3975,0.036637783050537109,
,,,2.3999999999999999,0.073708295822143555,
,,,2.4024999999999999,0.089262530207633972,
,,,2.4049999999999998,0.072578392922878265,
,,,2.4075000000000002,0.050148569047451019,
,,,2.4100000000000001,0.024545392021536827,
,,,2.4125000000000001,-0.00055293244076892734,
,,,2.415,-0.040195785462856293,
,,,2.4175,-0.052961312234401703,
,,,2.4199999999999999,-0.061423581093549728,
,,,2.4224999999999999,-0.066568255424499512,
,,,2.4249999999999998,-0.071809098124504089,
,,,2.4275000000000002,-0.074044868350028992,
,,,2.4300000000000002,-0.076953768730163574,
,,,2.4325000000000001,-0.080848336219787598,
,,,2.4350000000000001,-0.091137692332267761,
,,,2.4375,-0.09693145751953125,
,,,2.4399999999999999,-0.10262906551361084,
,,,2.4424999999999999,-0.10791798681020737,
,,,2.4449999999999998,-0.11645238101482391,
,,,2.4474999999999998,-0.11960168927907944,
,,,2.4500000000000002,-0.12210190296173096,
,,,2.4525000000000001,-0.12407322973012924,
,,,2.4550000000000001,-0.12715041637420654,
,,,2.4575,-0.12852072715759277,
,,,2.46,-0.12991508841514587,
,,,2.4624999999999999,-0.13140559196472168,
,,,2.4649999999999999,-0.13472318649291992,
,,,2.4674999999999998,-0.13647815585136414,
,,,2.4700000000000002,-0.13823311030864716,
,,,2.4725000000000001,-0.13993999361991882,
,,,2.4750000000000001,-0.14289698004722595,
,,,2.4775,-0.14412304759025574,
,,,2.48,-0.14518082141876221,
,,,2.4824999999999999,-0.14609436690807343,
,,,2.4849999999999999,-0.14789740741252899,
,,,2.4874999999999998,-0.14900326728820801,
,,,2.4900000000000002,-0.15039762854576111,
,,,2.4925000000000002,-0.15215258300304413,
,,,2.4950000000000001,-0.15705685317516327,
,,,2.4975000000000001,-0.16020616888999939,
,,,2.5,-0.16371607780456543,
,,,2.5024999999999999,-0.16751448810100555,
,,,2.5049999999999999,-0.17537574470043182,
,,,2.5074999999999998,-0.17917415499687195,
,,,2.5099999999999998,-0.18275618553161621,
,,,2.5125000000000002,-0.18607378005981445,
,,,2.5150000000000001,-0.19179543852806091,
,,,2.5175000000000001,-0.19431969523429871,
,,,2.52,-0.19674777984619141,
,,,2.5225,-0.19919991493225098,
,,,2.5249999999999999,-0.20456096529960632,
,,,2.5274999999999999,-0.20763814449310303,
,,,2.5299999999999998,-0.21107594668865204,
,,,2.5325000000000002,-0.21485030651092529,
,,,2.5350000000000001,-0.22350490093231201,
,,,2.5375000000000001,-0.22826492786407471,
,,,2.54,-0.23333749175071716,
,,,2.5425,-0.23865044116973877,
,,,2.5449999999999999,-0.24997353553771973,
,,,2.5474999999999999,-0.25600773096084595,
,,,2.5499999999999998,-0.26228231191635132,
,,,2.5525000000000002,-0.26882132887840271,
,,,2.5550000000000002,-0.28257250785827637,
,,,2.5575000000000001,-0.28971254825592041,
,,,2.5600000000000001,-0.29692471027374268,
,,,2.5625,-0.30416092276573181,
,,,2.5649999999999999,-0.31829676032066345,
,,,2.5674999999999999,-0.32507619261741638,
,,,2.5699999999999998,-0.33156713843345642,
,,,2.5724999999999998,-0.33781766891479492,
,,,2.5750000000000002,-0.34947735071182251,
,,,2.5775000000000001,-0.35498261451721191,
,,,2.5800000000000001,-0.36027154326438904,
,,,2.5825,-0.36539217829704285,
,,,2.585,-0.37484011054039001,
,,,2.5874999999999999,-0.37899911403656006,
,,,2.5899999999999999,-0.38255712389945984,
,,,2.5924999999999998,-0.38532179594039917,
,,,2.5950000000000002,-0.38755756616592407,
,,,2.5975000000000001,-0.38664400577545166,
,,,2.6000000000000001,-0.38416785001754761,
,,,2.6025,-0.3800809383392334,
,,,2.605,-0.36719521880149841,
,,,2.6074999999999999,-0.35863679647445679,
,,,2.6099999999999999,-0.34892439842224121,
,,,2.6124999999999998,-0.33825039863586426,
,,,2.6150000000000002,-0.31488299369812012,
,,,2.6175000000000002,-0.30250212550163269,
,,,2.6200000000000001,-0.28983277082443237,
,,,2.6225000000000001,-0.27689895033836365,
,,,2.625,-0.25038224458694458,
,,,2.6274999999999999,-0.23682336509227753,
,,,2.6299999999999999,-0.22312025725841522,
,,,2.6324999999999998,-0.2092488706111908,
,,,2.6349999999999998,-0.18140992522239685,
,,,2.6375000000000002,-0.16763469576835632,
,,,2.6400000000000001,-0.15412390232086182,
,,,2.6425000000000001,-0.14094969630241394,
,,,2.645,-0.11616389453411102,
,,,2.6475,-0.10476867854595184,
,,,2.6499999999999999,-0.09414275735616684,
,,,2.6524999999999999,-0.084358260035514832,
,,,2.6549999999999998,-0.067650079727172852,
,,,2.6575000000000002,-0.060798525810241699,
,,,2.6600000000000001,-0.054980717599391937,
,,,2.6625000000000001,-0.050172608345746994,
,,,2.665,-0.043321054428815842,
,,,2.6675,-0.041085284203290939,
,,,2.6699999999999999,-0.039498608559370041,
,,,2.6724999999999999,-0.038392744958400726,
,,,2.6749999999999998,-0.037094555795192719,
,,,2.6775000000000002,-0.036637783050537109,
,,,2.6800000000000002,-0.036181014031171799,
,,,2.6825000000000001,-0.035628080368041992,
,,,2.6850000000000001,-0.034161608666181564,
,,,2.6875,-0.033199988305568695,
,,,2.6899999999999999,-0.032070081681013107,
,,,2.6924999999999999,-0.030795931816101074,
,,,2.6949999999999998,-0.027887027710676193,
,,,2.6974999999999998,-0.026348432525992393,
,,,2.7000000000000002,-0.024785798043012619,
,,,2.7025000000000001,-0.023271244019269943,
,,,2.7050000000000001,-0.020554661750793457,
,,,2.7075,-0.019472837448120117,
,,,2.71,-0.018607378005981445,
,,,2.7124999999999999,-0.017669796943664551,
,,,2.7149999999999999,-0.017597675323486328,
,,,2.7174999999999998,-0.017741918563842773,
,,,2.7200000000000002,-0.018030405044555664,
,,,2.7225000000000001,-0.018871825188398361,
,,,2.7250000000000001,-0.019208392128348351,
,,,2.7275,-0.01937667652964592,
,,,2.73,-0.019280513748526573,
,,,2.7324999999999999,-0.018847784027457237,
,,,2.7349999999999999,-0.017020702362060547,
,,,2.7374999999999998,-0.015698473900556564,
,,,2.7400000000000002,-0.014256040565669537,
,,,2.7425000000000002,-0.011707743629813194,
,,,2.7450000000000001,-0.010914405807852745,
,,,2.7475000000000001,-0.01060187816619873,
,,,2.75,-0.010866324417293072,
,,,2.7524999999999999,-0.012981891632080078,
,,,2.7549999999999999,-0.014664730057120323,
,,,2.7574999999999998,-0.016563933342695236,
,,,2.7599999999999998,-0.018535256385803223,
,,,2.7625000000000002,-0.022237500175833702,
,,,2.7650000000000001,-0.023824175819754601,
,,,2.7675000000000001,-0.025266608223319054,
,,,2.77,-0.026588838547468185,
,,,2.7725,-0.028992891311645508,
,,,2.7749999999999999,-0.03014683723449707,
,,,2.7774999999999999,-0.031252704560756683,
,,,2.7799999999999998,-0.032262407243251801,
,,,2.7825000000000002,-0.033776961266994476,
,,,2.7850000000000001,-0.034185647964477539,
,,,2.7875000000000001,-0.03430585190653801,
,,,2.79,-0.034185647964477539,
,,,2.7925,-0.033488474786281586,
,,,2.7949999999999999,-0.03305574506521225,
,,,2.7974999999999999,-0.032623015344142914,
,,,2.7999999999999998,-0.032262407243251801,
,,,2.8025000000000002,-0.031637351959943771,
,,,2.8050000000000002,-0.031300783157348633,
,,,2.8075000000000001,-0.030868053436279297,
,,,2.8100000000000001,-0.030339162796735764,
,,,2.8125,-0.028968852013349533,
,,,2.8149999999999999,-0.028247635811567307,
,,,2.8174999999999999,-0.027598541229963303,
,,,2.8199999999999998,-0.027141770347952843,
,,,2.8224999999999998,-0.027141770347952843,
,,,2.8250000000000002,-0.027646621689200401,
,,,2.8275000000000001,-0.028415918350219727,
,,,2.8300000000000001,-0.029377540573477745,
,,,2.8325,-0.031252704560756683,
,,,2.835,-0.031853716820478439,
,,,2.8374999999999999,-0.032046042382717133,
,,,2.8399999999999999,-0.031733512878417969,
,,,2.8424999999999998,-0.029641985893249512,
,,,2.8450000000000002,-0.028007229790091515,
,,,2.8475000000000001,-0.026180148124694824,
,,,2.8500000000000001,-0.024304986000061035,
,,,2.8525,-0.021227797493338585,
,,,2.855,-0.020314257591962814,
,,,2.8574999999999999,-0.019953649491071701,
,,,2.8599999999999999,-0.020121932029724121,
,,,2.8624999999999998,-0.021780729293823242,
,,,2.8650000000000002,-0.023006796836853027,
,,,2.8675000000000002,-0.024232864379882812,
,,,2.8700000000000001,-0.025338729843497276,
,,,2.8725000000000001,-0.026564797386527061,
,,,2.875,-0.026588838547468185,
,,,2.8774999999999999,-0.026276310905814171,
,,,2.8799999999999999,-0.025723379105329514,
,,,2.8824999999999998,-0.024497311562299728,
,,,2.8849999999999998,-0.02416074275970459,
,,,2.8875000000000002,-0.024232864379882812,
,,,2.8900000000000001,-0.024761756882071495,
,,,2.8925000000000001,-0.027382176369428635,
,,,2.895,-0.029401581734418869,
,,,2.8975,-0.031709473580121994,
,,,2.8999999999999999,-0.034209690988063812,
,,,2.9024999999999999,-0.03908991813659668,
,,,2.9049999999999998,-0.041181445121765137,
,,,2.9075000000000002,-0.042840242385864258,
,,,2.9100000000000001,-0.043946109712123871,
,,,2.9125000000000001,-0.044234596192836761,
,,,2.915,-0.043441258370876312,
,,,2.9175,-0.042119026184082031,
,,,2.9199999999999999,-0.040412150323390961,
,,,2.9224999999999999,-0.038609109818935394,
,,,2.9249999999999998,-0.035748284310102463,
,,,2.9275000000000002,-0.035291515290737152,
,,,2.9300000000000002,-0.035868488252162933,
,,,2.9325000000000001,-0.040628515183925629,
,,,2.9350000000000001,-0.044763486832380295,
,,,2.9375,-0.049812000244855881,
,,,2.9399999999999999,-0.055485568940639496,
,,,2.9424999999999999,-0.061351459473371506,
,,,2.9449999999999998,-0.071881219744682312,
,,,2.9474999999999998,-0.075775787234306335,
,,,2.9500000000000002,-0.078324079513549805,
,,,2.9525000000000001,-0.079069338738918304,
,,,2.9550000000000001,-0.077362462878227234,
,,,2.9575,-0.074477598071098328,
,,,2.96,-0.070679187774658203,
,,,2.9624999999999999,-0.061471663415431976,
,,,2.9649999999999999,-0.056495271623134613,
,,,2.9674999999999998,-0.051542919129133224,
,,,2.9700000000000002,-0.046686731278896332,
,,,2.9725000000000001,-0.037455163896083832,
,,,2.9750000000000001,-0.03305574506521225,
,,,2.9775,-0.028752487152814865,
,,,2.98,-0.024521350860595703,
,,,2.9824999999999999,-0.016371607780456543,
,,,2.9849999999999999,-0.012549161911010742,
,,,2.9874999999999998,-0.0090632839128375053,
,,,2.9900000000000002,-0.0060341758653521538,
,,,2.9925000000000002,-0.002283851383253932,
,,,2.9950000000000001,-0.0018992027034983039,
,,,2.9975000000000001,-0.0027165811043232679,
,,,3,-0.0047119460068643093,42.857143402099609
,,,3.0024999999999999,-0.011299054138362408,
,,,3.0049999999999999,-0.014977256767451763,
,,,3.0074999999999998,-0.017886161804199219,
,,,3.0099999999999998,-0.019160311669111252,
,,,3.0125000000000002,-0.012717446312308311,
,,,3.0150000000000001,-0.0033416352234780788,
,,,3.0175000000000001,0.0107701625674963,
,,,3.02,0.02952178381383419,
,,,3.0225,0.077843271195888519,
,,,3.0249999999999999,0.10426382720470428,
,,,3.0274999999999999,0.1290496289730072,
,,,3.0299999999999998,0.14933983981609344,
,,,3.0325000000000002,0.16340355575084686,
,,,3.0350000000000001,0.15071015059947968,
,,,3.0375000000000001,0.12109220027923584,
,,,3.04,0.072578392922878265,
,,,3.0425,-0.083853408694267273,
,,,3.0449999999999999,-0.18963178992271423,
,,,3.0474999999999999,-0.30976235866546631,
,,,3.0499999999999998,-0.43922066688537598,
,,,3.0525000000000002,-0.69917106628417969,
,,,3.0550000000000002,-0.81406080722808838,
,,,3.0575000000000001,-0.90817952156066895,
,,,3.0600000000000001,-0.97443521022796631,
,,,3.0625,-1.0034762620925903,
,,,3.0649999999999999,-0.96239089965820312,
,,,3.0674999999999999,-0.88632667064666748,
,,,3.0699999999999998,-0.78030788898468018,
,,,3.0724999999999998,-0.50937098264694214,
,,,3.0750000000000002,-0.3630121648311615,
,,,3.0775000000000001,-0.22203843295574188,
,,,3.0800000000000001,-0.094695687294006348,
,,,3.0825,0.096138119697570801,
,,,3.085,0.15419602394104004,
,,,3.0874999999999999,0.18785278499126434,
,,,3.0899999999999999,0.2000173032283783,
,,,3.0924999999999998,0.17809233069419861,
,,,3.0950000000000002,0.15409986674785614,
,,,3.0975000000000001,0.1276552677154541,
,,,3.1000000000000001,0.10231654345989227,
,,,3.1025,0.063346825540065765,
,,,3.105,0.051062107086181641,
,,,3.1074999999999999,0.043032567948102951,
,,,3.1099999999999999,0.038152337074279785,
,,,3.1124999999999998,0.032935541123151779,
,,,3.1150000000000002,0.030531486496329308,
,,,3.1175000000000002,0.027382176369428635,
,,,3.1200000000000001,0.023319324478507042,
,,,3.1225000000000001,0.012957851402461529,
,,,3.125,0.0073804459534585476,
,,,3.1274999999999999,0.0019953649025410414,
,,,3.1299999999999999,-0.0028608243446797132,
,,,3.1324999999999998,-0.010385513305664062,
,,,3.1349999999999998,-0.013054013252258301,
,,,3.1375000000000002,-0.015145540237426758,
,,,3.1400000000000001,-0.016828378662467003,
,,,3.1425000000000001,-0.019641121849417686,
,,,3.145,-0.020987391471862793,
,,,3.1475,-0.022405784577131271,
,,,3.1499999999999999,-0.023872256278991699,
,,,3.1524999999999999,-0.026901364326477051,
,,,3.1549999999999998,-0.028343796730041504,
,,,3.1575000000000002,-0.02969006821513176,
,,,3.1600000000000001,-0.030964216217398643,
,,,3.1625000000000001,-0.03339231014251709,
,,,3.165,-0.034666460007429123,
,,,3.1675,-0.036084853112697601,
,,,3.1699999999999999,-0.037695568054914474,
,,,3.1724999999999999,-0.041758418083190918,
,,,3.1749999999999998,-0.044234596192836761,
,,,3.1775000000000002,-0.046927135437726974,
,,,3.1800000000000002,-0.049836039543151855,
,,,3.1825000000000001,-0.055894255638122559,
,,,3.1850000000000001,-0.058899324387311935,
,,,3.1875,-0.061784189194440842,
,,,3.1899999999999999,-0.064524814486503601,
,,,3.1924999999999999,-0.069380998611450195,
,,,3.1949999999999998,-0.071544647216796875,
,,,3.1974999999999998,-0.073564052581787109,
,,,3.2000000000000002,-0.075535379350185394,
,,,3.2025000000000001,-0.079526111483573914,
,,,3.2050000000000001,-0.08171379566192627,
,,,3.2075,-0.084141895174980164,
,,,3.21,-0.086906552314758301,
,,,3.2124999999999999,-0.093589827418327332,
,,,3.2149999999999999,-0.0976286381483078,
,,,3.2174999999999998,-0.1021001785993576,
,,,3.2200000000000002,-0.1070525273680687,
,,,3.2225000000000001,-0.11811117827892303,
,,,3.2250000000000001,-0.12409727275371552,
,,,3.2275,-0.13027569651603699,
,,,3.23,-0.13659834861755371,
,,,3.2324999999999999,-0.14938792586326599,
,,,3.2349999999999999,-0.15580675005912781,
,,,3.2374999999999998,-0.16222557425498962,
,,,3.2400000000000002,-0.16869246959686279,
,,,3.2425000000000002,-0.18181860446929932,
,,,3.2450000000000001,-0.18847784399986267,
,,,3.2475000000000001,-0.19523322582244873,
,,,3.25,-0.20201265811920166,
,,,3.2524999999999999,-0.21545132994651794,
,,,3.2549999999999999,-0.22196631133556366,
,,,3.2574999999999998,-0.22824089229106903,
,,,3.2599999999999998,-0.23417890071868896,
,,,3.2625000000000002,-0.24485290050506592,
,,,3.2650000000000001,-0.24951677024364471,
,,,3.2675000000000001,-0.25367578864097595,
,,,3.27,-0.25730592012405396,
,,,3.2725,-0.26297947764396667,
,,,3.2749999999999999,-0.26499888300895691,
,,,3.2774999999999999,-0.26646536588668823,
,,,3.2799999999999998,-0.26740294694900513,
,,,3.2825000000000002,-0.26764333248138428,
,,,3.2850000000000001,-0.26689809560775757,
,,,3.2875000000000001,-0.2654796838760376,
,,,3.29,-0.26331603527069092,
,,,3.2925,-0.2562481164932251,
,,,3.2949999999999999,-0.25100728869438171,
,,,3.2974999999999999,-0.24442017078399658,
,,,3.2999999999999998,-0.23639063537120819,
,,,3.3025000000000002,-0.21583597362041473,
,,,3.3050000000000002,-0.20338296890258789,
,,,3.3075000000000001,-0.18972794711589813,
,,,3.3100000000000001,-0.17508725821971893,
,,,3.3125,-0.14395475387573242,
,,,3.3149999999999999,-0.12811204791069031,
,,,3.3174999999999999,-0.11241357028484344,
,,,3.3199999999999998,-0.097147822380065918,
,,,3.3224999999999998,-0.068443417549133301,
,,,3.3250000000000002,-0.05522112175822258,
,,,3.3275000000000001,-0.042792163789272308,
,,,3.3300000000000001,-0.031180581077933311,
,,,3.3325,-0.010337432846426964,
,,,3.335,-0.0011058648815378547,
,,,3.3374999999999999,0.0073564052581787109,
,,,3.3399999999999999,0.015025338158011436,
,,,3.3424999999999998,0.027911067008972168,
,,,3.3450000000000002,0.033127866685390472,
,,,3.3475000000000001,0.037527285516262054,
,,,3.3500000000000001,0.041181445121765137,
,,,3.3525,0.046470366418361664,
,,,3.355,0.048369567841291428,
,,,3.3574999999999999,0.049956243485212326,
,,,3.3599999999999999,0.051446758210659027,
,,,3.3624999999999998,0.054692231118679047,
,,,3.3650000000000002,0.056711636483669281,
,,,3.3675000000000002,0.059019528329372406,
,,,3.3700000000000001,0.061639945954084396,
,,,3.3725000000000001,0.067265436053276062,
,,,3.375,0.0699339359998703,
,,,3.3774999999999999,0.072217784821987152,
,,,3.3799999999999999,0.073972746729850769,
,,,3.3824999999999998,0.075319014489650726,
,,,3.3849999999999998,0.074862241744995117,
,,,3.3875000000000002,0.073708295822143555,
,,,3.3900000000000001,0.072073541581630707,
,,,3.3925000000000001,0.068106852471828461,
,,,3.395,0.066255733370780945,
,,,3.3975,0.064717136323451996,
,,,3.3999999999999999,0.063659355044364929,
,,,3.4024999999999999,0.063178539276123047,
,,,3.4049999999999998,0.063683390617370605,
,,,3.4075000000000002,0.064548850059509277,
,,,3.4100000000000001,0.06565471738576889,
,,,3.4125000000000001,0.068010687828063965,
,,,3.415,0.068972311913967133,
,,,3.4175,0.06964544951915741,
,,,3.4199999999999999,0.069813728332519531,
,,,3.4224999999999999,0.06923675537109375,
,,,3.4249999999999998,0.068275138735771179,
,,,3.4275000000000002,0.066952906548976898,
,,,3.4300000000000002,0.065366230905056,
,,,3.4325000000000001,0.06183227151632309,
,,,3.4350000000000001,0.060125391930341721,
,,,3.4375,0.05863487720489502,
,,,3.4399999999999999,0.056567393243312836,
,,,3.4424999999999999,0.056062541902065277,
,,,3.4449999999999998,0.055870216339826584,
,,,3.4474999999999998,0.055918298661708832,
,,,3.4500000000000002,0.056206785142421722,
,,,3.4525000000000001,0.056254863739013672,
,,,3.4550000000000001,0.056062541902065277,
,,,3.4575,0.055605769157409668,
,,,3.46,0.053898893296718597,
,,,3.4624999999999999,0.052793025970458984,
,,,3.4649999999999999,0.051663123071193695,
,,,3.4674999999999998,0.050629377365112305,
,,,3.4700000000000002,0.049836039543151855,
,,,3.4725000000000001,0.049186944961547852,
,,,3.4750000000000001,0.04935523122549057,
,,,3.4775,0.049812000244855881,
,,,3.48,0.051014028489589691,
,,,3.4824999999999999,0.051470797508955002,
,,,3.4849999999999999,0.05168716236948967,
,,,3.4874999999999998,0.05151887983083725,
,,,3.4900000000000002,0.050028365105390549,
,,,3.4925000000000002,0.048802297562360764,
,,,3.4950000000000001,0.047407947480678558,
,,,3.4975000000000001,0.046013593673706055,
,,,3.5,0.043777823448181152,
,,,3.5024999999999999,0.043176811188459396,
,,,3.5049999999999999,0.043008528649806976,
,,,3.5074999999999998,0.043248932808637619,
,,,3.5099999999999998,0.044715404510498047,
,,,3.5125000000000002,0.045701067894697189,
,,,3.5150000000000001,0.046710770577192307,
,,,3.5175000000000001,0.047600269317626953,
,,,3.52,0.048706136643886566,
,,,3.5225,0.048874419182538986,
,,,3.5249999999999999,0.048778258264064789,
,,,3.5274999999999999,0.048489771783351898,
,,,3.5299999999999998,0.047600269317626953,
,,,3.5325000000000002,0.047143500298261642,
,,,3.5350000000000001,0.046782892197370529,
,,,3.5375000000000001,0.046542488038539886,
,,,3.54,0.046614609658718109,
,,,3.5425,0.046927135437726974,
,,,3.5449999999999999,0.047407947480678558,
,,,3.5474999999999999,0.048032999038696289,
,,,3.5499999999999998,0.049619674682617188,
,,,3.5525000000000002,0.050461094826459885,
,,,3.5550000000000002,0.051230393350124359,
,,,3.5575000000000001,0.051903527230024338,
,,,3.5600000000000001,0.052648782730102539,
,,,3.5625,0.052624743431806564,
,,,3.5649999999999999,0.052288174629211426,
,,,3.5674999999999999,0.051663123071193695,
,,,3.5699999999999998,0.049908161163330078,
,,,3.5724999999999998,0.048946540802717209,
,,,3.5750000000000002,0.048129163682460785,
,,,3.5775000000000001,0.047552190721035004,
,,,3.5800000000000001,0.047311782836914062,
,,,3.5825,0.048008959740400314,
,,,3.585,0.048850379884243011,
,,,3.5874999999999999,0.049884121865034103,
,,,3.5899999999999999,0.05197564885020256,
,,,3.5924999999999998,0.052696865051984787,
,,,3.5950000000000002,0.0530574731528759,
,,,3.5975000000000001,0.052985351532697678,
,,,3.6000000000000001,0.052480500191450119,
,,,3.6025,0.050413012504577637,
,,,3.605,0.049090784043073654,
,,,3.6074999999999999,0.047696433961391449,
,,,3.6099999999999999,0.045100055634975433,
,,,3.6124999999999998,0.043946109712123871,
,,,3.6150000000000002,0.04291236400604248,
,,,3.6175000000000002,0.041878622025251389,
,,,3.6200000000000001,0.039618812501430511,
,,,3.6225000000000001,0.038248501718044281,
,,,3.625,0.036709904670715332,
,,,3.6274999999999999,0.035051107406616211,
,,,3.6299999999999999,0.031661391258239746,
,,,3.6324999999999998,0.030218958854675293,
,,,3.6349999999999998,0.029113095253705978,
,,,3.6375000000000002,0.028439959511160851,
,,,3.6400000000000001,0.028680365532636642,
,,,3.6425000000000001,0.029545824974775314,
,,,3.645,0.030795931816101074,
,,,3.6475,0.032286446541547775,
,,,3.6499999999999999,0.035291515290737152,
,,,3.6524999999999999,0.036421418190002441,
,,,3.6549999999999998,0.037046473473310471,
,,,3.6575000000000002,0.036998391151428223,
,,,3.6600000000000001,0.034353934228420258,
,,,3.6625000000000001,0.031589269638061523,
,,,3.665,0.027814906090497971,
,,,3.6675,0.02307891845703125,
,,,3.6699999999999999,0.011250972747802734,
,,,3.6724999999999999,0.0046638650819659233,
,,,3.6749999999999998,-0.0018992027034983039,
,,,3.6775000000000002,-0.0080776214599609375,
,,,3.6800000000000002,-0.017357271164655685,
,,,3.6825000000000001,-0.019713243469595909,
,,,3.6850000000000001,-0.020121932029724121,
,,,3.6875,-0.018463134765625,
,,,3.6899999999999999,-0.0092796487733721733,
,,,3.6924999999999999,-0.002283851383253932,
,,,3.6949999999999998,0.0057216486893594265,
,,,3.6974999999999998,0.014232000336050987,
,,,3.7000000000000002,0.030651688575744629,
,,,3.7025000000000001,0.037719607353210449,
,,,3.7050000000000001,0.04365762323141098,
,,,3.7075,0.048369567841291428,
,,,3.71,0.054451823234558105,
,,,3.7124999999999999,0.056158702820539474,
,,,3.7149999999999999,0.057264566421508789,
,,,3.7174999999999998,0.057913661003112793,
,,,3.7200000000000002,0.057961743324995041,
,,,3.7225000000000001,0.05721648782491684,
,,,3.7250000000000001,0.055822134017944336,
,,,3.7275,0.053682528436183929,
,,,3.73,0.04752814769744873,
,,,3.7324999999999999,0.044186513870954514,
,,,3.7349999999999999,0.041518013924360275,
,,,3.7374999999999998,0.040436189621686935,
,,,3.7400000000000002,0.046879053115844727,
,,,3.7425000000000002,0.056230824440717697,
,,,3.7450000000000001,0.070390701293945312,
,,,3.7475000000000001,0.089406773447990417,
,,,3.75,0.13926684856414795,
,,,3.7524999999999999,0.16715388000011444,
,,,3.7549999999999999,0.19403120875358582,
,,,3.7574999999999998,0.21706204116344452,
,,,3.7599999999999998,0.23881873488426208,
,,,3.7625000000000002,0.23105363547801971,
,,,3.7650000000000001,0.20696501433849335,
,,,3.7675000000000001,0.16431710124015808,
,,,3.77,0.019304554909467697,
,,,3.7725,-0.08200228214263916,
,,,3.7749999999999999,-0.19932012259960175,
,,,3.7774999999999999,-0.32829761505126953,
,,,3.7799999999999998,-0.59668624401092529,
,,,3.7825000000000002,-0.7211681604385376,
,,,3.7850000000000001,-0.82843703031539917,
,,,3.7875000000000001,-0.91092014312744141,
,,,3.79,-0.9780653715133667,
,,,3.7925,-0.95633268356323242,
,,,3.7949999999999999,-0.89789015054702759,
,,,3.7974999999999999,-0.80643993616104126,
,,,3.7999999999999998,-0.5512736439704895,
,,,3.8025000000000002,-0.40517926216125488,
,,,3.8050000000000002,-0.25949358940124512,
,,,3.8075000000000001,-0.12311160564422607,
,,,3.8100000000000001,0.094262957572937012,
,,,3.8125,0.16727408766746521,
,,,3.8149999999999999,0.21533112227916718,
,,,3.8174999999999999,0.24038136005401611,
,,,3.8199999999999998,0.23708781599998474,
,,,3.8224999999999998,0.21845638751983643,
,,,3.8250000000000002,0.19489666819572449,
,,,3.8275000000000001,0.17039935290813446,
,,,3.8300000000000001,0.12907366454601288,
,,,3.8325,0.11467337608337402,
,,,3.835,0.10445614904165268,
,,,3.8374999999999999,0.09767671674489975,
,,,3.8399999999999999,0.090176068246364594,
,,,3.8424999999999998,0.087531611323356628,
,,,3.8450000000000002,0.084742903709411621,
,,,3.8475000000000001,0.081473395228385925,
,,,3.8500000000000001,0.073636174201965332,
,,,3.8525,0.069380998611450195,
,,,3.855,0.065221987664699554,
,,,3.8574999999999999,0.061327420175075531,
,,,3.8599999999999999,0.054523944854736328,
,,,3.8624999999999998,0.051566958427429199,
,,,3.8650000000000002,0.048802297562360764,
,,,3.8675000000000002,0.046181879937648773,
,,,3.8700000000000001,0.041229527443647385,
,,,3.8725000000000001,0.038969717919826508,
,,,3.875,0.03692626953125,
,,,3.8774999999999999,0.035195350646972656,
,,,3.8799999999999999,0.032911501824855804,
,,,3.8824999999999998,0.032358568161725998,
,,,3.8849999999999998,0.032118164002895355,
,,,3.8875000000000002,0.032070081681013107,
,,,3.8900000000000001,0.031781595200300217,
,,,3.8925000000000001,0.031132500618696213,
,,,3.895,0.029930472373962402,
,,,3.8975,0.028079351410269737,
,,,3.8999999999999999,0.022261541336774826,
,,,3.9024999999999999,0.018439095467329025,
,,,3.9049999999999998,0.014183918945491314,
,,,3.9075000000000002,0.0097123784944415092,
,,,3.9100000000000001,0.00086545944213867188,
,,,3.9125000000000001,-0.0031973919831216335,
,,,3.915,-0.006875594612210989,
,,,3.9175,-0.010193189606070518,
,,,3.9199999999999999,-0.015938878059387207,
,,,3.9224999999999999,-0.018559297546744347,
,,,3.9249999999999998,-0.021131634712219238,
,,,3.9275000000000002,-0.023800134658813477,
,,,3.9300000000000002,-0.029449662193655968,
,,,3.9325000000000001,-0.032478772103786469,
,,,3.9350000000000001,-0.035580001771450043,
,,,3.9375,-0.038729310035705566,
,,,3.9399999999999999,-0.045220255851745605,
,,,3.9424999999999999,-0.048585932701826096,
,,,3.9449999999999998,-0.052119892090559006,
,,,3.9474999999999998,-0.055942337960004807,
,,,3.9500000000000002,-0.064693093299865723,
,,,3.9525000000000001,-0.069765649735927582,
,,,3.9550000000000001,-0.075294971466064453,
,,,3.9575,-0.081257030367851257,
,,,3.96,-0.094238921999931335,
,,,3.9624999999999999,-0.10109047591686249,
,,,3.9649999999999999,-0.10803818702697754,
,,,3.9674999999999998,-0.11503398418426514,
,,,3.9700000000000002,-0.12890538573265076,
,,,3.9725000000000001,-0.13570885360240936,
,,,3.9750000000000001,-0.14236807823181152,
,,,3.9775,-0.14883498847484589,
,,,3.98,-0.16114374995231628,
,,,3.9824999999999999,-0.16688942909240723,
,,,3.9849999999999999,-0.17237067222595215,
,,,3.9874999999999998,-0.17761151492595673,
,,,3.9900000000000002,-0.18754026293754578,
,,,3.9925000000000002,-0.19237241148948669,
,,,3.9950000000000001,-0.19727668166160583,
,,,3.9975000000000001,-0.20230114459991455,
,,,4,-0.21283090114593506,31.25
,,,4.0025000000000004,-0.21821598708629608,
,,,4.0049999999999999,-0.22352895140647888,
,,,4.0075000000000003,-0.22852937877178192,
,,,4.0099999999999998,-0.23655891418457031,
,,,4.0125000000000002,-0.23898701369762421,
,,,4.0149999999999997,-0.240020751953125,
,,,4.0175000000000001,-0.23944377899169922,
,,,4.0199999999999996,-0.23297688364982605,
,,,4.0225,-0.22706291079521179,
,,,4.0250000000000004,-0.21946609020233154,
,,,4.0274999999999999,-0.21033069491386414,
,,,4.0300000000000002,-0.18818935751914978,
,,,4.0324999999999998,-0.17554402351379395,
,,,4.0350000000000001,-0.16212940216064453,
,,,4.0374999999999996,-0.14811377227306366,
,,,4.04,-0.11885643005371094,
,,,4.0425000000000004,-0.10390321910381317,
,,,4.0449999999999999,-0.088901922106742859,
,,,4.0475000000000003,-0.073948703706264496,
,,,4.0499999999999998,-0.044643282890319824,
,,,4.0525000000000002,-0.030459364876151085,
,,,4.0549999999999997,-0.016684135422110558,
,,,4.0575000000000001,0.0092075271531939507,
,,,4.0599999999999996,0.021155675873160362,
,,,4.0625,0.03231048583984375,
,,,4.0650000000000004,0.042551755905151367,
,,,4.0674999999999999,0.05983690544962883,
,,,4.0700000000000003,0.066712498664855957,
,,,4.0724999999999998,0.072386071085929871,
,,,4.0750000000000002,0.076833568513393402,
,,,4.0774999999999997,0.080127120018005371,
,,,4.0800000000000001,0.083949565887451172,
,,,4.0824999999999996,0.08486311137676239,
,,,4.085,0.085440084338188171,
,,,4.0875000000000004,0.086569987237453461,
,,,4.0899999999999999,0.087507568299770355,
,,,4.0925000000000002,0.088853836059570312,
,,,4.0949999999999998,0.090656876564025879,
,,,4.0975000000000001,0.09551306813955307,
,,,4.0999999999999996,0.098349854350090027,
,,,4.1025,0.10123471915721893,
,,,4.1050000000000004,0.10395129770040512,
,,,4.1074999999999999,0.10818243026733398,
,,,4.1100000000000003,0.10933637619018555,
,,,4.1124999999999998,0.10974507033824921,
,,,4.1150000000000002,0.10936041921377182,
,,,4.1174999999999997,0.10640343278646469,
,,,4.1200000000000001,0.10414361953735352,
,,,4.1224999999999996,0.10159532725811005,
,,,4.125,0.099022984504699707,
,,,4.1275000000000004,0.094695687294006348,
,,,4.1299999999999999,0.093253254890441895,
,,,4.1325000000000003,0.092483960092067719,
,,,4.1349999999999998,0.092363759875297546,
,,,4.1375000000000002,0.093878313899040222,
,,,4.1399999999999997,0.095296703279018402,
,,,4.1425000000000001,0.096907421946525574,
,,,4.1449999999999996,0.098590254783630371,
,,,4.1475,0.10152320563793182,
,,,4.1500000000000004,0.10253290832042694,
,,,4.1524999999999999,0.10318200290203094,
,,,4.1550000000000002,0.10339836776256561,
,,,4.1574999999999998,0.10260502994060516,
,,,4.1600000000000001,0.10169148445129395,
,,,4.1624999999999996,0.10053753852844238,
,,,4.165,0.099191270768642426,
,,,4.1675000000000004,0.096570849418640137,
,,,4.1699999999999999,0.095489025115966797,
,,,4.1725000000000003,0.094695687294006348,
,,,4.1749999999999998,0.094238921999931335,
,,,4.1775000000000002,0.094335079193115234,
,,,4.1799999999999997,0.09476780891418457,
,,,4.1825000000000001,0.095248624682426453,
,,,4.1849999999999996,0.095633268356323242,
,,,4.1875,0.095537111163139343,
,,,4.1900000000000004,0.094839930534362793,
,,,4.1924999999999999,0.093710027635097504,
,,,4.1950000000000003,0.092171430587768555,
,,,4.1974999999999998,0.088541314005851746,
,,,4.2000000000000002,0.086786352097988129,
,,,4.2024999999999997,0.085319876670837402,
,,,4.2050000000000001,0.084310173988342285,
,,,4.2074999999999996,0.083853408694267273,
,,,4.21,0.084358260035514832,
,,,4.2125000000000004,0.08519967645406723,
,,,4.2149999999999999,0.086233422160148621,
,,,4.2175000000000002,0.08810858428478241,
,,,4.2199999999999998,0.088709592819213867,
,,,4.2225000000000001,0.088974043726921082,
,,,4.2249999999999996,0.088925957679748535,
,,,4.2275,0.088204741477966309,
,,,4.2300000000000004,0.087772011756896973,
,,,4.2324999999999999,0.087483525276184082,
,,,4.2350000000000003,0.087435446679592133,
,,,4.2374999999999998,0.088252827525138855,
,,,4.2400000000000002,0.089046165347099304,
,,,4.2424999999999997,0.089935660362243652,
,,,4.2450000000000001,0.090825162827968597,
,,,4.2474999999999996,0.091858908534049988,
,,,4.25,0.091762743890285492,
,,,4.2525000000000004,0.091185770928859711,
,,,4.2549999999999999,0.09015202522277832,
,,,4.2575000000000003,0.087146960198879242,
,,,4.2599999999999998,0.085512205958366394,
,,,4.2625000000000002,0.084045730531215668,
,,,4.2649999999999997,0.082891784608364105,
,,,4.2675000000000001,0.081978246569633484,
,,,4.2699999999999996,0.082218647003173828,
,,,4.2725,0.082843706011772156,
,,,4.2750000000000004,0.083685122430324554,
,,,4.2774999999999999,0.085319876670837402,
,,,4.2800000000000002,0.085776649415493011,
,,,4.2824999999999998,0.085848771035671234,
,,,4.2850000000000001,0.085464119911193848,
,,,4.2874999999999996,0.083588957786560059,
,,,4.29,0.082338854670524597,
,,,4.2925000000000004,0.081088744103908539,
,,,4.2949999999999999,0.080006919801235199,
,,,4.2975000000000003,0.078852973878383636,
,,,4.2999999999999998,0.07887701690196991,
,,,4.3025000000000002,0.079309746623039246,
,,,4.3049999999999997,0.080054998397827148,
,,,4.3075000000000001,0.082026325166225433,
,,,4.3099999999999996,0.083011984825134277,
,,,4.3125,0.083853408694267273,
,,,4.3150000000000004,0.084502503275871277,
,,,4.3174999999999999,0.085127554833889008,
,,,4.3200000000000003,0.085127554833889008,
,,,4.3224999999999998,0.084959268569946289,
,,,4.3250000000000002,0.084694825112819672,
,,,4.3274999999999997,0.083997651934623718,
,,,4.3300000000000001,0.083613000810146332,
,,,4.3324999999999996,0.083276435732841492,
,,,4.335,0.082987949252128601,
,,,4.3375000000000004,0.082651376724243164,
,,,4.3399999999999999,0.082651376724243164,
,,,4.3425000000000002,0.082771584391593933,
,,,4.3449999999999998,0.082987949252128601,
,,,4.3475000000000001,0.083709165453910828,
,,,4.3499999999999996,0.084093809127807617,
,,,4.3525,0.084406338632106781,
,,,4.3550000000000004,0.0845746248960495,
,,,4.3574999999999999,0.083997651934623718,
,,,4.3600000000000003,0.083108149468898773,
,,,4.3624999999999998,0.081761881709098816,
,,,4.3650000000000002,0.079910755157470703,
,,,4.3674999999999997,0.077602863311767578,
,,,4.3700000000000001,0.071953341364860535,
,,,4.3724999999999996,0.068876147270202637,
,,,4.375,0.065895125269889832,
,,,4.3775000000000004,0.061014890670776367,
,,,4.3799999999999999,0.059476297348737717,
,,,4.3825000000000003,0.058682959526777267,
,,,4.3849999999999998,0.05875508114695549,
,,,4.3875000000000002,0.061303377151489258,
,,,4.3899999999999997,0.06353914737701416,
,,,4.3925000000000001,0.066183611750602722,
,,,4.3949999999999996,0.068924233317375183,
,,,4.3975,0.073708295822143555,
,,,4.4000000000000004,0.075174771249294281,
,,,4.4024999999999999,0.075751744210720062,
,,,4.4050000000000002,0.07522284984588623,
,,,4.4074999999999998,0.070583030581474304,
,,,4.4100000000000001,0.066472098231315613,
,,,4.4124999999999996,0.061351459473371506,
,,,4.415,0.055365364998579025,
,,,4.4175000000000004,0.041974782943725586,
,,,4.4199999999999999,0.035243432968854904,
,,,4.4225000000000003,0.028968852013349533,
,,,4.4249999999999998,0.02353568933904171,
,,,4.4275000000000002,0.01646777056157589,
,,,4.4299999999999997,0.015337864868342876,
,,,4.4325000000000001,0.015962919220328331,
,,,4.4349999999999996,0.018318891525268555,
,,,4.4375,0.02752641960978508,
,,,4.4400000000000004,0.033776961266994476,
,,,4.4424999999999999,0.040580432862043381,
,,,4.4450000000000003,0.04752814769744873,
,,,4.4474999999999998,0.060486000031232834,
,,,4.4500000000000002,0.066039368510246277,
,,,4.4524999999999997,0.070823431015014648,
,,,4.4550000000000001,0.074910327792167664,
,,,4.4574999999999996,0.081593595445156097,
,,,4.46,0.084502503275871277,
,,,4.4625000000000004,0.087267160415649414,
,,,4.4649999999999999,0.089911624789237976,
,,,4.4675000000000002,0.094166800379753113,
,,,4.4699999999999998,0.095344781875610352,
,,,4.4725000000000001,0.095537111163139343,
,,,4.4749999999999996,0.094623565673828125,
,,,4.4775,0.089743338525295258,
,,,4.4800000000000004,0.08661806583404541,
,,,4.4824999999999999,0.083925530314445496,
,,,4.4850000000000003,0.082675419747829437,
,,,4.4874999999999998,0.088613435626029968,
,,,4.4900000000000002,0.097604595124721527,
,,,4.4924999999999997,0.1113317459821701,
,,,4.4950000000000001,0.12974679470062256,
,,,4.4974999999999996,0.17765960097312927,
,,,4.5,0.20412823557853699,
,,,4.5025000000000004,0.22922655940055847,
,,,4.5049999999999999,0.25009375810623169,
,,,4.5075000000000003,0.26622495055198669,
,,,4.5099999999999998,0.25497397780418396,
,,,4.5125000000000002,0.2268705815076828,
,,,4.5149999999999997,0.17970304191112518,
,,,4.5175000000000001,0.024329027161002159,
,,,4.5199999999999996,-0.082483097910881042,
,,,4.5225,-0.20511388778686523,
,,,4.5250000000000004,-0.33880335092544556,
,,,4.5274999999999999,-0.61264914274215698,
,,,4.5300000000000002,-0.7368425726890564,
,,,4.5324999999999998,-0.84139490127563477,
,,,4.5350000000000001,-0.91854095458984375,
,,,4.5374999999999996,-0.96792024374008179,
,,,4.54,-0.93481642007827759,
,,,4.5425000000000004,-0.86442571878433228,
,,,4.5449999999999999,-0.7613639235496521,
,,,4.5475000000000003,-0.48761427402496338,
,,,4.5499999999999998,-0.33584636449813843,
,,,4.5525000000000002,-0.18734793365001678,
,,,4.5549999999999997,-0.051014028489589691,
,,,4.5575000000000001,0.15931665897369385,
,,,4.5599999999999996,0.22655805945396423,
,,,4.5625,0.2682684063911438,
,,,4.5650000000000004,0.28702002763748169,
,,,4.5674999999999999,0.27307650446891785,
,,,4.5700000000000003,0.25055050849914551,
,,,4.5724999999999998,0.22408187389373779,
,,,4.5750000000000002,0.1974930465221405,
,,,4.5774999999999997,0.15361905097961426,
,,,4.5800000000000001,0.1383773535490036,
,,,4.5824999999999996,0.12741486728191376,
,,,4.585,0.11996229737997055,
,,,4.5875000000000004,0.1115240678191185,
,,,4.5899999999999999,0.10871132463216782,
,,,4.5925000000000002,0.10604282468557358,
,,,4.5949999999999998,0.10323008149862289,
,,,4.5975000000000001,0.09693145751953125,
,,,4.5999999999999996,0.093637906014919281,
,,,4.6025,0.090344354510307312,
,,,4.6050000000000004,0.087146960198879242,
,,,4.6074999999999999,0.081016622483730316,
,,,4.6100000000000003,0.078059636056423187,
,,,4.6124999999999998,0.075150728225708008,
,,,4.6150000000000002,0.072313949465751648,
,,,4.6174999999999997,0.067097149789333344,
,,,4.6200000000000001,0.064837336540222168,
,,,4.6224999999999996,0.062841974198818207,
,,,4.625,0.061135094612836838,
,,,4.6275000000000004,0.058322351425886154,
,,,4.6299999999999999,0.057024162262678146,
,,,4.6325000000000003,0.055653851479291916,
,,,4.6349999999999998,0.054091215133666992,
,,,4.6375000000000002,0.050268769264221191,
,,,4.6399999999999997,0.04798492044210434,
,,,4.6425000000000001,0.045484703034162521,
,,,4.6449999999999996,0.042840242385864258,
,,,4.6475,0.037334959954023361,
,,,4.6500000000000004,0.034570299088954926,
,,,4.6524999999999999,0.031781595200300217,
,,,4.6550000000000002,0.029016932472586632,
,,,4.6574999999999998,0.023391446098685265,
,,,4.6600000000000001,0.020506581291556358,
,,,4.6624999999999996,0.017573636025190353,
,,,4.665,0.014592608436942101,
,,,4.6675000000000004,0.0084863109514117241,
,,,4.6699999999999999,0.0053850812837481499,
,,,4.6725000000000003,0.0022117297630757093,
,,,4.6749999999999998,-0.00098566222004592419,
,,,4.6775000000000002,-0.0076689324341714382,
,,,4.6799999999999997,-0.011178851127624512,
,,,4.6825000000000001,-0.014808973297476768,
,,,4.6849999999999996,-0.018559297546744347,
,,,4.6875,-0.026420554146170616,
,,,4.6900000000000004,-0.030459364876151085,
,,,4.6924999999999999,-0.034570299088954926,
,,,4.6950000000000003,-0.03875335305929184,
,,,4.6974999999999998,-0.047431986778974533,
,,,4.7000000000000002,-0.052047770470380783,
,,,4.7024999999999997,-0.056952040642499924,
,,,4.7050000000000001,-0.062192879617214203,
,,,4.7074999999999996,-0.073924660682678223,
,,,4.71,-0.080415606498718262,
,,,4.7125000000000004,-0.087339282035827637,
,,,4.7149999999999999,-0.094575487077236176,
,,,4.7175000000000002,-0.10967294871807098,
,,,4.7199999999999998,-0.11734187602996826,
,,,4.7225000000000001,-0.12498676776885986,
,,,4.7249999999999996,-0.13255953788757324,
,,,4.7275,-0.14732043445110321,
,,,4.7300000000000004,-0.1545085608959198,
,,,4.7324999999999999,-0.16152839362621307,
,,,4.7350000000000003,-0.1684039831161499,
,,,4.7374999999999998,-0.18160223960876465,
,,,4.7400000000000002,-0.18785278499126434,
,,,4.7424999999999997,-0.19383887946605682,
,,,4.7450000000000001,-0.19948840141296387,
,,,4.7474999999999996,-0.20965754985809326,
,,,4.75,-0.21405696868896484,
,,,4.7525000000000004,-0.21797558665275574,
,,,4.7549999999999999,-0.22129318118095398,
,,,4.7575000000000003,-0.22578875720500946,
,,,4.7599999999999998,-0.22672633826732635,
,,,4.7625000000000002,-0.22653400897979736,
,,,4.7649999999999997,-0.22506754100322723,
,,,4.7675000000000001,-0.21759092807769775,
,,,4.7699999999999996,-0.21136443316936493,
,,,4.7725,-0.20338296890258789,
,,,4.7750000000000004,-0.19371867179870605,
,,,4.7774999999999999,-0.16991853713989258,
,,,4.7800000000000002,-0.15626351535320282,
,,,4.7824999999999998,-0.14179110527038574,
,,,4.7850000000000001,-0.1268138587474823,
,,,4.7874999999999996,-0.096450649201869965,
,,,4.79,-0.081497430801391602,
,,,4.7925000000000004,-0.066856741905212402,
,,,4.7949999999999999,-0.052648782730102539,
,,,4.7975000000000003,-0.025603175163269043,
,,,4.7999999999999998,-0.01276552677154541,
,,,4.8025000000000002,-0.00040868920041248202,
,,,4.8049999999999997,0.011467337608337402,
,,,4.8075000000000001,0.033656757324934006,
,,,4.8099999999999996,0.043849945068359375,
,,,4.8125,0.053418081253767014,
,,,4.8150000000000004,0.062265001237392426,
,,,4.8174999999999999,0.077747106552124023,
,,,4.8200000000000003,0.084334217011928558,
,,,4.8224999999999998,0.09015202522277832,
,,,4.8250000000000002,0.095200538635253906,
,,,4.8274999999999997,0.10310988128185272,
,,,4.8300000000000001,0.10606686770915985,
,,,4.8324999999999996,0.10842283815145493,
,,,4.835,0.11029800027608871,
,,,4.8375000000000004,0.1130145788192749,
,,,4.8399999999999999,0.11407236754894257,
,,,4.8425000000000002,0.11508207023143768,
,,,4.8449999999999998,0.11604368686676025,
,,,4.8475000000000001,0.11808713525533676,
,,,4.8499999999999996,0.11909683793783188,
,,,4.8525,0.12003441900014877,
,,,4.8550000000000004,0.1208517998456955,
,,,4.8574999999999999,0.12202978134155273,
,,,4.8600000000000003,0.12241443246603012,
,,,4.8624999999999998,0.12272696197032928,
,,,4.8650000000000002,0.12301544845104218,
,,,4.8674999999999997,0.1239289864897728,
,,,4.8700000000000001,0.12460212409496307,
,,,4.8724999999999996,0.12537142634391785,
,,,4.875,0.1261647641658783,
,,,4.8775000000000004,0.12731871008872986,
,,,4.8799999999999999,0.12739083170890808,
,,,4.8825000000000003,0.12698213756084442,
,,,4.8849999999999998,0.12604455649852753,
,,,4.8875000000000002,0.12279908359050751,
,,,4.8899999999999997,0.120755635201931,
,,,4.8925000000000001,0.11868815124034882,
,,,4.8949999999999996,0.11676490306854248,
,,,4.8975,0.1139521598815918,
,,,4.9000000000000004,0.11323094367980957,
,,,4.9024999999999999,0.11289437860250473,
,,,4.9050000000000002,0.112918421626091,
,,,4.9074999999999998,0.11351943016052246,
,,,4.9100000000000001,0.1138560026884079,
,,,4.9124999999999996,0.11414448916912079,
,,,4.915,0.11433681100606918,
,,,4.9175000000000004,0.11452913284301758,
,,,4.9199999999999999,0.11462529748678207,
,,,4.9225000000000003,0.11472146213054657,
,,,4.9249999999999998,0.11488974094390869,
,,,4.9275000000000002,0.11515419185161591,
,,,4.9299999999999997,0.11515419185161591,
,,,4.9325000000000001,0.11496186256408691,
,,,4.9349999999999996,0.11448105424642563,
,,,4.9375,0.11260589212179184,
,,,4.9400000000000004,0.11125962436199188,
,,,4.9424999999999999,0.10972102731466293,
,,,4.9450000000000003,0.10818243026733398,
,,,4.9474999999999998,0.1054658517241478,
,,,4.9500000000000002,0.10457634925842285,
,,,4.9524999999999997,0.10404746234416962,
,,,4.9550000000000001,0.10390321910381317,
,,,4.9574999999999996,0.10448019206523895,
,,,4.96,0.10496100038290024,
,,,4.9625000000000004,0.10534565150737762,
,,,4.9649999999999999,0.10556201636791229,
,,,4.9675000000000002,0.10524948686361313,
,,,4.9699999999999998,0.10491292178630829,
,,,4.9725000000000001,0.10467251390218735,
,,,4.9749999999999996,0.10474463552236557,
,,,4.9775,0.1068602055311203,
,,,4.9800000000000004,0.10914405435323715,
,,,4.9824999999999999,0.11219720542430878,
,,,4.9850000000000003,0.11577924340963364,
,,,4.9874999999999998,0.1229914054274559,
,,,4.9900000000000002,0.12556374073028564,
,,,4.9924999999999997,0.12683789432048798,
,,,4.9950000000000001,0.12638112902641296,
,,,4.9974999999999996,0.11998634040355682,
,,,5,0.11438488960266113,26.905830383300781
,,,5.0025000000000004,0.10774970054626465,
,,,5.0049999999999999,0.1007058247923851,
,,,5.0075000000000003,0.087988376617431641,
,,,5.0099999999999998,0.083396635949611664,
,,,5.0125000000000002,0.080367527902126312,
,,,5.0149999999999997,0.078997217118740082,
,,,5.0175000000000001,0.080487728118896484,
,,,5.0199999999999996,0.082651376724243164,
,,,5.0225,0.08519967645406723,
,,,5.0250000000000004,0.087796054780483246,
,,,5.0274999999999999,0.092075273394584656,
,,,5.0300000000000002,0.093613862991333008,
,,,5.0324999999999998,0.094791851937770844,
,,,5.0350000000000001,0.095729433000087738,
,,,5.0374999999999996,0.09734015166759491,
,,,5.04,0.098157525062561035,
,,,5.0425000000000004,0.098974905908107758,
,,,5.0449999999999999,0.099720165133476257,
,,,5.0475000000000003,0.10051350295543671,
,,,5.0499999999999998,0.10034521669149399,
,,,5.0525000000000002,0.099744200706481934,
,,,5.0549999999999997,0.09871046245098114,
,,,5.0575000000000001,0.095753476023674011,
,,,5.0599999999999996,0.09414275735616684,
,,,5.0625,0.092700324952602386,
,,,5.0650000000000004,0.091570422053337097,
,,,5.0674999999999999,0.090753041207790375,
,,,5.0700000000000003,0.091161727905273438,
,,,5.0724999999999998,0.092051230370998383,
,,,5.0750000000000002,0.093301340937614441,
,,,5.0774999999999997,0.096282362937927246,
,,,5.0800000000000001,0.0976286381483078,
,,,5.0824999999999996,0.098638340830802917,
,,,5.085,0.099191270768642426,
,,,5.0875000000000004,0.098638340830802917,
,,,5.0899999999999999,0.097556516528129578,
,,,5.0925000000000002,0.096017919480800629,
,,,5.0949999999999998,0.094166800379753113,
,,,5.0975000000000001,0.090031825006008148,
,,,5.0999999999999996,0.087988376617431641,
,,,5.1025,0.086113214492797852,
,,,5.1050000000000004,0.084430381655693054,
,,,5.1074999999999999,0.081737838685512543,
,,,5.1100000000000003,0.080704092979431152,
,,,5.1124999999999998,0.079790554940700531,
,,,5.1150000000000002,0.078973174095153809,
,,,5.1174999999999997,0.077482663094997406,
,,,5.1200000000000001,0.076785489916801453,
,,,5.1224999999999996,0.076064273715019226,
,,,5.125,0.074669919908046722,
,,,5.1275000000000004,0.073996782302856445,
,,,5.1299999999999999,0.073371730744838715,
,,,5.1325000000000003,0.072818800806999207,
,,,5.1349999999999998,0.072337985038757324,
,,,5.1375000000000002,0.071568690240383148,
,,,5.1399999999999997,0.071184039115905762,
,,,5.1425000000000001,0.070655152201652527,
,,,5.1449999999999996,0.068611703813076019,
,,,5.1475,0.066760584712028503,
,,,5.1500000000000004,0.064140163362026215,
,,,5.1524999999999999,0.060702364891767502,
,,,5.1550000000000002,0.051374636590480804,
,,,5.1574999999999998,0.045797228813171387,
,,,5.1600000000000001,0.040027499198913574,
,,,5.1624999999999996,0.03442605584859848,
,,,5.165,0.025555094704031944,
,,,5.1675000000000004,0.02307891845703125,
,,,5.1699999999999999,0.022261541336774826,
,,,5.1725000000000003,0.023271244019269943,
,,,5.1749999999999998,0.030459364876151085,
,,,5.1775000000000002,0.036181014031171799,
,,,5.1799999999999997,0.042816203087568283,
,,,5.1825000000000001,0.049956243485212326,
,,,5.1849999999999996,0.064092084765434265,
,,,5.1875,0.070462822914123535,
,,,5.1900000000000004,0.076064273715019226,
,,,5.1924999999999999,0.080872379243373871,
,,,5.1950000000000003,0.088300906121730804,
,,,5.1974999999999998,0.091113649308681488,
,,,5.2000000000000002,0.093493662774562836,
,,,5.2024999999999997,0.09551306813955307,
,,,5.2050000000000001,0.09842197597026825,
,,,5.2074999999999996,0.09909510612487793,
,,,5.21,0.09904702752828598,
,,,5.2125000000000004,0.098157525062561035,
,,,5.2149999999999999,0.093830227851867676,
,,,5.2175000000000002,0.090753041207790375,
,,,5.2199999999999998,0.087675854563713074,
,,,5.2225000000000001,0.085295841097831726,
,,,5.2249999999999996,0.086209379136562347,
,,,5.2275,0.091305971145629883,
,,,5.2300000000000004,0.10051350295543671,
,,,5.2324999999999999,0.11421661078929901,
,,,5.2350000000000003,0.15426814556121826,
,,,5.2374999999999998,0.17874142527580261,
,,,5.2400000000000002,0.20381569862365723,
,,,5.2424999999999997,0.22706291079521179,
,,,5.2450000000000001,0.25567114353179932,
,,,5.2474999999999996,0.25434893369674683,
,,,5.25,0.2382417619228363,
,,,5.2525000000000004,0.20456096529960632,
,,,5.2549999999999999,0.077867314219474792,
,,,5.2575000000000003,-0.015337864868342876,
,,,5.2599999999999998,-0.12602052092552185,
,,,5.2625000000000002,-0.25016587972640991,
,,,5.2649999999999997,-0.5149003267288208,
,,,5.2675000000000001,-0.64036786556243896,
,,,5.2699999999999996,-0.75016105175018311,
,,,5.2725,-0.8362501859664917,
,,,5.2750000000000004,-0.89175981283187866,
,,,5.2774999999999999,-0.89397156238555908,
,,,5.2800000000000002,-0.83875042200088501,
,,,5.2824999999999998,-0.74958407878875732,
,,,5.2850000000000001,-0.49629291892051697,
,,,5.2874999999999996,-0.35007834434509277,
,,,5.29,-0.20395994186401367,
,,,5.2925000000000004,-0.067265436053276062,
,,,5.2949999999999999,0.14921963214874268,
,,,5.2975000000000003,0.22047579288482666,
,,,5.2999999999999998,0.26584029197692871,
,,,5.3025000000000002,0.28730851411819458,
,,,5.3049999999999997,0.27531227469444275,
,,,5.3075000000000001,0.25232952833175659,
,,,5.3099999999999996,0.22501945495605469,
,,,5.3125,0.1976853609085083,
,,,5.3150000000000004,0.15431623160839081,
,,,5.3174999999999999,0.14066120982170105,
,,,5.3200000000000003,0.13212680816650391,
,,,5.3224999999999998,0.12751102447509766,
,,,5.3250000000000002,0.12409727275371552,
,,,5.3274999999999997,0.12248655408620834,
,,,5.3300000000000001,0.11964976787567139,
,,,5.3324999999999996,0.11517822742462158,
,,,5.335,0.10183572769165039,
,,,5.3375000000000004,0.093950435519218445,
,,,5.3399999999999999,0.086161300539970398,
,,,5.3425000000000002,0.079021260142326355,
,,,5.3449999999999998,0.068587660789489746,
,,,5.3475000000000001,0.065630674362182617,
,,,5.3499999999999996,0.064068041741847992,
,,,5.3525,0.063659355044364929,
,,,5.3550000000000004,0.064669057726860046,
,,,5.3574999999999999,0.065270066261291504,
,,,5.3600000000000003,0.065438352525234222,
,,,5.3624999999999998,0.064909458160400391,
,,,5.3650000000000002,0.061255298554897308,
,,,5.3674999999999997,0.058178108185529709,
,,,5.3700000000000001,0.054475866258144379,
,,,5.3724999999999996,0.050413012504577637,
,,,5.375,0.042239230126142502,
,,,5.3775000000000004,0.038633149117231369,
,,,5.3799999999999999,0.03555595874786377,
,,,5.3825000000000003,0.033031702041625977,
,,,5.3849999999999998,0.029305418953299522,
,,,5.3875000000000002,0.027742784470319748,
,,,5.3899999999999997,0.026108026504516602,
,,,5.3925000000000001,0.02416074275970459,
,,,5.3949999999999996,0.01891990564763546,
,,,5.3975,0.015626352280378342,
,,,5.4000000000000004,0.012068351730704308,
,,,5.4024999999999999,0.0084141893312335014,
,,,5.4050000000000002,0.0016347568016499281,
,,,5.4074999999999998,-0.0012020270805805922,
,,,5.4100000000000001,-0.0035820405464619398,
,,,5.4124999999999996,-0.0055774054490029812,
,,,5.415,-0.0092796487733721733,
,,,5.4175000000000004,-0.011419257149100304,
,,,5.4199999999999999,-0.014063715934753418,
,,,5.4225000000000003,-0.01738131046295166,
,,,5.4249999999999998,-0.026083987206220627,
,,,5.4275000000000002,-0.031324826180934906,
,,,5.4299999999999997,-0.036878190934658051,
,,,5.4325000000000001,-0.042527716606855392,
,,,5.4349999999999996,-0.053249798715114594,
,,,5.4375,-0.058081947267055511,
,,,5.4400000000000004,-0.062505409121513367,
,,,5.4424999999999999,-0.066640377044677734,
,,,5.4450000000000003,-0.074790120124816895,
,,,5.4474999999999998,-0.079237625002861023,
,,,5.4500000000000002,-0.084214016795158386,
,,,5.4524999999999997,-0.08986353874206543,
,,,5.4550000000000001,-0.10339836776256561,
,,,5.4574999999999996,-0.11118750274181366,
,,,5.46,-0.11948148906230927,
,,,5.4625000000000004,-0.12813608348369598,
,,,5.4649999999999999,-0.14566163718700409,
,,,5.4675000000000002,-0.15414795279502869,
,,,5.4699999999999998,-0.16227364540100098,
,,,5.4725000000000001,-0.16994258761405945,
,,,5.4749999999999996,-0.18369376659393311,
,,,5.4775,-0.18977603316307068,
,,,5.4800000000000004,-0.19532939791679382,
,,,5.4824999999999999,-0.20042598247528076,
,,,5.4850000000000003,-0.20917674899101257,
,,,5.4874999999999998,-0.21280686557292938,
,,,5.4900000000000002,-0.21586000919342041,
,,,5.4924999999999997,-0.21826407313346863,
,,,5.4950000000000001,-0.22052387893199921,
,,,5.4974999999999996,-0.22016327083110809,
,,,5.5,-0.21862468123435974,
,,,5.5025000000000004,-0.21583597362041473,
,,,5.5049999999999999,-0.20646016299724579,
,,,5.5075000000000003,-0.19989709556102753,
,,,5.5099999999999998,-0.19220411777496338,
,,,5.5125000000000002,-0.18342933058738708,
,,,5.5149999999999997,-0.17369291186332703,
,,,5.5175000000000001,-0.15169581770896912,
,,,5.5199999999999996,-0.13955533504486084,
,,,5.5225,-0.12674173712730408,
,,,5.5250000000000004,-0.099287435412406921,
,,,5.5274999999999999,-0.084815025329589844,
,,,5.5300000000000002,-0.070054136216640472,
,,,5.5324999999999998,-0.055149000138044357,
,,,5.5350000000000001,-0.025891661643981934,
,,,5.5374999999999996,-0.012020270340144634,
,,,5.54,0.001033743261359632,
,,,5.5425000000000004,0.013102094642817974,
,,,5.5449999999999999,0.033945243805646896,
,,,5.5475000000000003,0.042768120765686035,
,,,5.5499999999999998,0.050653420388698578,
,,,5.5525000000000002,0.057769417762756348,
,,,5.5549999999999997,0.070342622697353363,
,,,5.5575000000000001,0.076088309288024902,
,,,5.5599999999999996,0.081545516848564148,
,,,5.5625,0.086738273501396179,
,,,5.5650000000000004,0.096065998077392578,
,,,5.5674999999999999,0.10000865161418915,
,,,5.5700000000000003,0.10337432473897934,
,,,5.5724999999999998,0.1061149463057518,
,,,5.5750000000000002,0.10986527055501938,
,,,5.5774999999999997,0.11106729507446289,
,,,5.5800000000000001,0.11200487613677979,
,,,5.5824999999999996,0.11289437860250473,
,,,5.585,0.11505802720785141,
,,,5.5875000000000004,0.11654853820800781,
,,,5.5899999999999999,0.11839966475963593,
,,,5.5925000000000002,0.12058734893798828,
,,,5.5949999999999998,0.12561182677745819,
,,,5.5975000000000001,0.12820820510387421,
,,,5.5999999999999996,0.1306363046169281,
,,,5.6025,0.13277590274810791,
,,,5.6050000000000004,0.13558864593505859,
,,,5.6074999999999999,0.13611754775047302,
,,,5.6100000000000003,0.13599734008312225,
,,,5.6124999999999998,0.13527612388134003,
,,,5.6150000000000002,0.1324152946472168,
,,,5.6174999999999997,0.13054013252258301,
,,,5.6200000000000001,0.12861689925193787,
,,,5.6224999999999996,0.12676577270030975,
,,,5.625,0.12395302951335907,
,,,5.6275000000000004,0.12311160564422607,
,,,5.6299999999999999,0.12267887592315674,
,,,5.6325000000000003,0.12260675430297852,
,,,5.6349999999999998,0.12306352704763412,
,,,5.6375000000000002,0.12332797050476074,
,,,5.6399999999999997,0.12340009212493896,
,,,5.6425000000000001,0.12320777028799057,
,,,5.6449999999999996,0.12181341648101807,
,,,5.6475,0.1206594705581665,
,,,5.6500000000000004,0.11931320279836655,
,,,5.6524999999999999,0.11789481341838837,
,,,5.6550000000000002,0.11537055671215057,
,,,5.6574999999999998,0.11445701122283936,
,,,5.6600000000000001,0.11383195966482162,
,,,5.6624999999999996,0.11351943016052246,
,,,5.665,0.11337518692016602,
,,,5.6675000000000004,0.11337518692016602,
,,,5.6699999999999999,0.11320690810680389,
,,,5.6725000000000003,0.11282225698232651,
,,,5.6749999999999998,0.11113941669464111,
,,,5.6775000000000002,0.10986527055501938,
,,,5.6799999999999997,0.10842283815145493,
,,,5.6825000000000001,0.10690828412771225,
,,,5.6849999999999996,0.10421574115753174,
,,,5.6875,0.10325412452220917,
,,,5.6900000000000004,0.10260502994060516,
,,,5.6924999999999999,0.102292500436306,
,,,5.6950000000000003,0.10246078670024872,
,,,5.6974999999999998,0.10272523015737534,
,,,5.7000000000000002,0.10296563804149628,
,,,5.7024999999999997,0.1030377596616745,
,,,5.7050000000000001,0.10250886529684067,
,,,5.7074999999999996,0.10188381373882294,
,,,5.71,0.10104238986968994,
,,,5.7125000000000004,0.10012885183095932,
,,,5.7149999999999999,0.098446011543273926,
,,,5.7175000000000002,0.097917124629020691,
,,,5.7199999999999998,0.09767671674489975,
,,,5.7225000000000001,0.097772881388664246,
,,,5.7249999999999996,0.098974905908107758,
,,,5.7275,0.099960565567016602,
,,,5.7300000000000004,0.10109047591686249,
,,,5.7324999999999999,0.10224442183971405,
,,,5.7350000000000003,0.10421574115753174,
,,,5.7374999999999998,0.10484080016613007,
,,,5.7400000000000002,0.10512928664684296,
,,,5.7424999999999997,0.10505716502666473,
,,,5.7450000000000001,0.10385513305664062,
,,,5.7474999999999996,0.10284543037414551,
,,,5.75,0.10169148445129395,
,,,5.7525000000000004,0.10053753852844238,
,,,5.7549999999999999,0.098686419427394867,
,,,5.7575000000000003,0.098229646682739258,
,,,5.7599999999999998,0.098181568086147308,
,,,5.7625000000000002,0.098566219210624695,
,,,5.7649999999999997,0.10036925971508026,
,,,5.7675000000000001,0.10159532725811005,
,,,5.7699999999999996,0.10282139480113983,
,,,5.7725,0.10392725467681885,
,,,5.7750000000000004,0.1052735298871994,
,,,5.7774999999999999,0.10534565150737762,
,,,5.7800000000000002,0.10505716502666473,
,,,5.7824999999999998,0.10440807044506073,
,,,5.7850000000000001,0.10262906551361084,
,,,5.7874999999999996,0.10178764909505844,
,,,5.79,0.10118663311004639,
,,,5.7925000000000004,0.10094623267650604,
,,,5.7949999999999999,0.10183572769165039,
,,,5.7975000000000003,0.10296563804149628,
,,,5.7999999999999998,0.10443210601806641,
,,,5.8025000000000002,0.1061149463057518,
,,,5.8049999999999997,0.10931234061717987,
,,,5.8075000000000001,0.11041820049285889,
,,,5.8099999999999996,0.11094709485769272,
,,,5.8125,0.11075477302074432,
,,,5.8150000000000004,0.10801415145397186,
,,,5.8174999999999999,0.10551393032073975,
,,,5.8200000000000003,0.1023886650800705,
,,,5.8224999999999998,0.098806619644165039,
,,,5.8250000000000002,0.091113649308681488,
,,,5.8274999999999997,0.087435446679592133,
,,,5.8300000000000001,0.084141895174980164,
,,,5.8324999999999996,0.081377230584621429,
,,,5.835,0.077891349792480469,
,,,5.8375000000000004,0.077218219637870789,
,,,5.8399999999999999,0.077266298234462738,
,,,5.8425000000000002,0.077963471412658691,
,,,5.8449999999999998,0.080800257623195648,
,,,5.8475000000000001,0.08269946277141571,
,,,5.8499999999999996,0.084694825112819672,
,,,5.8525,0.08661806583404541,
,,,5.8550000000000004,0.08947889506816864,
,,,5.8574999999999999,0.090055868029594421,
,,,5.8600000000000003,0.08981546014547348,
,,,5.8624999999999998,0.088637471199035645,
,,,5.8650000000000002,0.083156228065490723,
,,,5.8674999999999997,0.07887701690196991,
,,,5.8700000000000001,0.073732338845729828,
,,,5.8724999999999996,0.068010687828063965,
,,,5.875,0.056110620498657227,
,,,5.8775000000000004,0.050797663629055023,
,,,5.8799999999999999,0.046422284096479416,
,,,5.8825000000000003,0.043393176048994064,
,,,5.8849999999999998,0.042239230126142502,
,,,5.8875000000000002,0.044234596192836761,
,,,5.8899999999999997,0.047816634178161621,
,,,5.8925000000000001,0.052696865051984787,
,,,5.8949999999999996,0.064957544207572937,
,,,5.8975,0.071472525596618652,
,,,5.9000000000000004,0.07779519259929657,
,,,5.9024999999999999,0.083588957786560059,
,,,5.9050000000000002,0.0930609330534935,
,,,5.9074999999999998,0.096715092658996582,
,,,5.9100000000000001,0.09979228675365448,
,,,5.9124999999999996,0.10243674367666245,
,,,5.915,0.10714869201183319,
,,,5.9175000000000004,0.10933637619018555,
,,,5.9199999999999999,0.11135578155517578,
,,,5.9225000000000003,0.1130145788192749,
,,,5.9249999999999998,0.11436085402965546,
,,,5.9275000000000002,0.11351943016052246,
,,,5.9299999999999997,0.11154811084270477,
,,,5.9325000000000001,0.1085430383682251,
,,,5.9349999999999996,0.10109047591686249,
,,,5.9375,0.098157525062561035,
,,,5.9400000000000004,0.097099743783473969,
,,,5.9424999999999999,0.098998948931694031,
,,,5.9450000000000003,0.11556287854909897,
,,,5.9474999999999998,0.13130943477153778,
,,,5.9500000000000002,0.15200833976268768,
,,,5.9524999999999997,0.1767941415309906,
,,,5.9550000000000001,0.23201525211334229,
,,,5.9574999999999996,0.25752228498458862,
,,,5.96,0.27752399444580078,
,,,5.9625000000000004,0.28855860233306885,
,,,5.9649999999999999,0.27023971080780029,
,,,5.9675000000000002,0.23502032458782196,
,,,5.9699999999999998,0.17975112795829773,
,,,5.9725000000000001,0.1038791760802269,
,,,5.9749999999999996,-0.10484080016613007,
,,,5.9775,-0.23107767105102539,
,,,5.9800000000000004,-0.36474308371543884,
,,,5.9824999999999999,-0.49864888191223145,
,,,5.9850000000000003,-0.73455870151519775,
,,,5.9874999999999998,-0.82014304399490356,
,,,5.9900000000000002,-0.87466698884963989,
,,,5.9924999999999997,-0.89325034618377686,
,,,5.9950000000000001,-0.81627249717712402,
,,,5.9974999999999996,-0.72491848468780518,
,,,6,-0.60577356815338135,40.540538787841797
,,,6.0025000000000004,-0.46734809875488281,
,,,6.0049999999999999,-0.17176966369152069,
,,,6.0075000000000003,-0.034065447747707367,
,,,6.0099999999999998,0.085993014276027679,
