Data Set 1:Time(s),Data Set 1:EKG(mV),Data Set 1:Heart Rate(bpm)
0,0.18201093375682831,98.36065673828125
0.0050000000000000001,0.17027914524078369,
0.01,0.15845119953155518,
0.014999999999999999,0.12025078386068344,
0.02,0.13234317302703857,
0.025000000000000001,0.15506148338317871,
0.029999999999999999,0.19573807716369629,
0.035000000000000003,0.21403293311595917,
0.040000000000000001,0.20807087421417236,
0.044999999999999998,0.17696242034435272,
0.050000000000000003,0.098830662667751312,
0.055,0.039979420602321625,
0.059999999999999998,-0.028968852013349533,
0.065000000000000002,-0.049162905663251877,
0.070000000000000007,-0.035796366631984711,
0.074999999999999997,-0.0058178110048174858,
0.080000000000000002,0.045412581413984299,
0.085000000000000006,0.068707868456840515,
0.089999999999999997,0.07317940890789032,
0.095000000000000001,0.05755305290222168,
0.10000000000000001,0.023054879158735275,
0.105,0.00461578369140625,
0.11,-0.0042311353608965874,
0.115,0.0013462703209370375,
0.12,0.015169581398367882,
0.125,0.02108355425298214,
0.13,0.021684568375349045,
0.13500000000000001,0.020266175270080566,
0.14000000000000001,0.024401148781180382,
0.14499999999999999,0.033248066902160645,
0.14999999999999999,0.04952351376414299,
0.155,0.055149000138044357,
0.16,0.045196216553449631,
0.16500000000000001,0.0253627710044384,
0.17000000000000001,-0.014808973297476768,
0.17499999999999999,-0.038657188415527344,
0.17999999999999999,-0.054596066474914551,
0.185,-0.048489771783351898,
0.19,-0.021227797493338585,
0.19500000000000001,-4.8081081331474707e-05,
0.20000000000000001,0.02199709415435791,
0.20499999999999999,0.027430256828665733,
0.20999999999999999,0.027478337287902832,
0.215,0.028319757431745529,
0.22,0.036782026290893555,
0.22500000000000001,0.045508742332458496,
0.23000000000000001,0.054163336753845215,
0.23499999999999999,0.051951609551906586,
0.23999999999999999,0.035171311348676682,
0.245,0.018679499626159668,
0.25,-0.0035339593887329102,
0.255,-0.01139521598815918,
0.26000000000000001,-0.0097123784944415092,
0.26500000000000001,-0.0019232432823628187,
0.27000000000000002,0.011539459228515625,
0.27500000000000002,0.016852419823408127,
0.28000000000000003,0.014712810516357422,
0.28499999999999998,0.0064428648911416531,
0.28999999999999998,-0.013318459503352642,
0.29499999999999998,-0.028848648071289062,
0.29999999999999999,-0.050364933907985687,
0.30499999999999999,-0.059740744531154633,
0.31,-0.059692662209272385,
0.315,-0.047720473259687424,
0.32000000000000001,-0.013270378112792969,
0.32500000000000001,0.01567443273961544,
0.33000000000000002,0.055028796195983887,
0.33500000000000002,0.075054571032524109,
0.34000000000000002,0.074020825326442719,
0.34499999999999997,0.056062541902065277,
0.34999999999999998,0.041493974626064301,
0.35499999999999998,0.034930907189846039,
0.35999999999999999,0.050292812287807465,
0.36499999999999999,0.10669191926717758,
0.37,0.1568404883146286,
0.375,0.21203756332397461,
0.38,0.20477733016014099,
0.38500000000000001,0.081785917282104492,
0.39000000000000001,-0.083132192492485046,
0.39500000000000002,-0.41635811328887939,
0.40000000000000002,-0.64253151416778564,
0.40500000000000003,-0.87271970510482788,
0.40999999999999998,-0.89940470457077026,
0.41499999999999998,-0.72571182250976562,
0.41999999999999998,-0.50273579359054565,
0.42499999999999999,-0.12479444593191147,
0.42999999999999999,0.085416041314601898,
0.435,0.26680192351341248,
0.44,0.29728531837463379,
0.44500000000000001,0.25545477867126465,
0.45000000000000001,0.20506581664085388,
0.45500000000000002,0.13775229454040527,
0.46000000000000002,0.10659575462341309,
0.46500000000000002,0.076833568513393402,
0.46999999999999997,0.064019963145256042,
0.47499999999999998,0.05185544490814209,
0.47999999999999998,0.047744512557983398,
0.48499999999999999,0.04490773007273674,
0.48999999999999999,0.042335391044616699,
0.495,0.033608675003051758,
0.5,0.024377107620239258,
0.505,0.008822878822684288,
0.51000000000000001,-0.00016828379011712968,
0.51500000000000001,-0.0091834869235754013,
0.52000000000000002,-0.012789567932486534,
0.52500000000000002,-0.01783808134496212,
0.53000000000000003,-0.023127000778913498,
0.53500000000000003,-0.035411715507507324,
0.54000000000000004,-0.045773189514875412,
0.54500000000000004,-0.061135094612836838,
0.55000000000000004,-0.069332920014858246,
0.55500000000000005,-0.077723070979118347,
0.56000000000000005,-0.082218647003173828,
0.56499999999999995,-0.092027187347412109,
0.56999999999999995,-0.10282139480113983,
0.57499999999999996,-0.12563586235046387,
0.57999999999999996,-0.1430412232875824,
0.58499999999999996,-0.16741833090782166,
0.58999999999999997,-0.1807127445936203,
0.59499999999999997,-0.19667565822601318,
0.59999999999999998,-0.20631591975688934,
0.60499999999999998,-0.22114893794059753,
0.60999999999999999,-0.23050069808959961,
0.61499999999999999,-0.23920337855815887,
0.62,-0.23860237002372742,
0.625,-0.22617340087890625,
0.63,-0.21150867640972137,
0.63500000000000001,-0.18472751975059509,
0.64000000000000001,-0.16650478541851044,
0.64500000000000002,-0.14147858321666718,
0.65000000000000002,-0.12647728621959686,
0.65500000000000003,-0.1053696870803833,
0.66000000000000003,-0.091281935572624207,
0.66500000000000004,-0.069164633750915527,
0.67000000000000004,-0.053682528436183929,
0.67500000000000004,-0.030363202095031738,
0.68000000000000005,-0.015818675979971886,
0.68500000000000005,0.0023319325409829617,
0.68999999999999995,0.011226932518184185,
0.69499999999999995,0.020242135971784592,
0.69999999999999996,0.024569433182477951,
0.70499999999999996,0.030507445335388184,
0.70999999999999996,0.03442605584859848,
0.71499999999999997,0.038849513977766037,
0.71999999999999997,0.039666891098022461,
0.72499999999999998,0.036998391151428223,
0.72999999999999998,0.033656757324934006,
0.73499999999999999,0.029834311455488205,
0.73999999999999999,0.029786229133605957,
0.745,0.033801000565290451,
0.75,0.037743650376796722,
0.755,0.041998825967311859,
0.76000000000000001,0.04228731244802475,
0.76500000000000001,0.038536988198757172,
0.77000000000000002,0.034161608666181564,
0.77500000000000002,0.026853283867239952,
0.78000000000000003,0.022598108276724815,
0.78500000000000003,0.018246769905090332,
0.79000000000000004,0.016876459121704102,
0.79500000000000004,0.01646777056157589,
0.80000000000000004,0.016539892181754112,
0.80500000000000005,0.015890797600150108,
0.81000000000000005,0.014808973297476768,
0.81499999999999995,0.013390581123530865,
0.81999999999999995,0.013655027374625206,
0.82499999999999996,0.016708176583051682,
0.82999999999999996,0.019905567169189453,
0.83499999999999996,0.024425189942121506,
0.83999999999999997,0.026396512985229492,
0.84499999999999997,0.027622580528259277,
0.84999999999999998,0.027814906090497971,
0.85499999999999998,0.028031270951032639,
0.85999999999999999,0.028223594650626183,
0.86499999999999999,0.028584202751517296,
0.87,0.029089054092764854,
0.875,0.03122866153717041,
0.88,0.033897161483764648,
0.88500000000000001,0.03892163559794426,
0.89000000000000001,0.041758418083190918,
0.89500000000000002,0.043681662529706955,
0.90000000000000002,0.043417215347290039,
0.90500000000000003,0.042407512664794922,
0.91000000000000003,0.042479634284973145,
0.91500000000000004,0.044330757111310959,
0.92000000000000004,0.045773189514875412,
0.92500000000000004,0.045628946274518967,
0.93000000000000005,0.042936407029628754,
0.93500000000000005,0.03567616268992424,
0.93999999999999995,0.030411284416913986,
0.94499999999999995,0.025386810302734375,
0.94999999999999996,0.025050243362784386,
0.95499999999999996,0.028488039970397949,
0.95999999999999996,0.031781595200300217,
0.96499999999999997,0.034618377685546875,
0.96999999999999997,0.033320188522338867,
0.97499999999999998,0.025314688682556152,
0.97999999999999998,0.016515851020812988,
0.98499999999999999,0.0014905135612934828,
0.98999999999999999,-0.006707310676574707,
0.995,-0.010673999786376953,
1,-0.0057216486893594265,100.74626922607422
1.0049999999999999,0.01276552677154541,
1.01,0.029738148674368858,
1.0149999999999999,0.054836474359035492,
1.02,0.066808663308620453,
1.0249999999999999,0.071761012077331543,
1.03,0.065294109284877777,
1.0349999999999999,0.046013593673706055,
1.04,0.0345943383872509,
1.0449999999999999,0.03875335305929184,
1.05,0.065294109284877777,
1.0549999999999999,0.14104585349559784,
1.0600000000000001,0.20042598247528076,
1.0649999999999999,0.25235354900360107,
1.0700000000000001,0.22802452743053436,
1.075,0.066351890563964844,
1.0800000000000001,-0.11885643005371094,
1.085,-0.44657707214355469,
1.0900000000000001,-0.63724261522293091,
1.095,-0.77965879440307617,
1.1000000000000001,-0.74583375453948975,
1.105,-0.5171360969543457,
1.1100000000000001,-0.29310226440429688,
1.115,0.041469931602478027,
1.1200000000000001,0.20960947871208191,
1.125,0.33683201670646667,
1.1299999999999999,0.34522217512130737,
1.135,0.28882306814193726,
1.1399999999999999,0.23528477549552917,
1.145,0.16638457775115967,
1.1499999999999999,0.13590118288993835,
1.155,0.11097113788127899,
1.1599999999999999,0.10301371663808823,
1.165,0.095705389976501465,
1.1699999999999999,0.09089728444814682,
1.175,0.082170568406581879,
1.1799999999999999,0.075775787234306335,
1.1850000000000001,0.066880784928798676,
1.1899999999999999,0.06212075799703598,
1.1950000000000001,0.056663554161787033,
1.2,0.053706567734479904,
1.2050000000000001,0.049499474465847015,
1.21,0.046686731278896332,
1.2150000000000001,0.04262387752532959,
1.22,0.039811134338378906,
1.2250000000000001,0.03447413444519043,
1.23,0.029473703354597092,
1.2350000000000001,0.019208392128348351,
1.24,0.010649959556758404,
1.2450000000000001,-0.004351337905973196,
1.25,-0.015746554359793663,
1.2549999999999999,-0.035195350646972656,
1.26,-0.04952351376414299,
1.2649999999999999,-0.071232125163078308,
1.27,-0.084238052368164062,
1.2749999999999999,-0.09909510612487793,
1.28,-0.10570625960826874,
1.2849999999999999,-0.11320690810680389,
1.29,-0.11892855167388916,
1.2949999999999999,-0.1312853991985321,
1.3,-0.14152666926383972,
1.3049999999999999,-0.15551826357841492,
1.3100000000000001,-0.16039848327636719,
1.3149999999999999,-0.15650391578674316,
1.3200000000000001,-0.14580588042736053,
1.325,-0.120106540620327,
1.3300000000000001,-0.099263392388820648,
1.335,-0.066976949572563171,
1.3400000000000001,-0.046710770577192307,
1.345,-0.019809406250715256,
1.3500000000000001,-0.004399418830871582,
1.355,0.015602311119437218,
1.3600000000000001,0.027430256828665733,
1.365,0.043489336967468262,
1.3700000000000001,0.05288919061422348,
1.375,0.064308449625968933,
1.3799999999999999,0.069909892976284027,
1.385,0.075895987451076508,
1.3899999999999999,0.079069338738918304,
1.395,0.083877444267272949,
1.3999999999999999,0.087291203439235687,
1.405,0.091810822486877441,
1.4099999999999999,0.093661949038505554,
1.415,0.09414275735616684,
1.4199999999999999,0.093205176293849945,
1.425,0.091089606285095215,
1.4299999999999999,0.089743338525295258,
1.4350000000000001,0.088060498237609863,
1.4399999999999999,0.086978673934936523,
1.4450000000000001,0.08491118997335434,
1.45,0.083011984825134277,
1.4550000000000001,0.079309746623039246,
1.46,0.076448917388916016,
1.4650000000000001,0.072145663201808929,
1.47,0.06964544951915741,
1.4750000000000001,0.066976949572563171,
1.48,0.065943203866481781,
1.4850000000000001,0.064861379563808441,
1.49,0.063923798501491547,
1.4950000000000001,0.061567824333906174,
1.5,0.059476297348737717,
1.5049999999999999,0.056254863739013672,
1.51,0.054403744637966156,
1.5149999999999999,0.052288174629211426,
1.52,0.051350593566894531,
1.5249999999999999,0.050917863845825195,
1.53,0.051566958427429199,
1.5349999999999999,0.054235458374023438,
1.54,0.056783758103847504,
1.5449999999999999,0.060197513550519943,
1.55,0.061255298554897308,
1.5549999999999999,0.060606203973293304,
1.5600000000000001,0.059572458267211914,
1.5649999999999999,0.059308014810085297,
1.5700000000000001,0.060678325593471527,
1.575,0.064164206385612488,
1.5800000000000001,0.066087447106838226,
1.585,0.066664420068264008,
1.5900000000000001,0.065534517168998718,
1.595,0.063370868563652039,
1.6000000000000001,0.062793895602226257,
1.605,0.063659355044364929,
1.6100000000000001,0.064380571246147156,
1.615,0.063226625323295593,
1.6200000000000001,0.060077309608459473,
1.625,0.052216053009033203,
1.6299999999999999,0.046205919235944748,
1.635,0.039282243698835373,
1.6399999999999999,0.037551324814558029,
1.645,0.039690934121608734,
1.6499999999999999,0.042816203087568283,
1.655,0.045268338173627853,
1.6599999999999999,0.04257579892873764,
1.665,0.02969006821513176,
1.6699999999999999,0.016395648941397667,
1.675,-0.0044955811463296413,
1.6799999999999999,-0.014232000336050987,
1.6850000000000001,-0.015890797600150108,
1.6899999999999999,-0.006875594612210989,
1.6950000000000001,0.019232433289289474,
1.7,0.040917001664638519,
1.7050000000000001,0.070751309394836426,
1.71,0.083877444267272949,
1.7150000000000001,0.088637471199035645,
1.72,0.082795619964599609,
1.7250000000000001,0.069356963038444519,
1.73,0.065847039222717285,
1.7350000000000001,0.083949565887451172,
1.74,0.11616389453411102,
1.7450000000000001,0.18590550124645233,
1.75,0.22913038730621338,
1.7549999999999999,0.24194400012493134,
1.76,0.18739601969718933,
1.7649999999999999,-0.014159878715872765,
1.77,-0.21631678938865662,
1.7749999999999999,-0.54788392782211304,
1.78,-0.7249906063079834,
1.7849999999999999,-0.82629740238189697,
1.79,-0.75773382186889648,
1.7949999999999999,-0.48290234804153442,
1.8,-0.24165551364421844,
1.8049999999999999,0.091089606285095215,
1.8100000000000001,0.24280945956707001,
1.8149999999999999,0.33788979053497314,
1.8200000000000001,0.32949966192245483,
1.825,0.2637006938457489,
1.8300000000000001,0.21355211734771729,
1.835,0.15616735816001892,
1.8400000000000001,0.13255953788757324,
1.845,0.11238952726125717,
1.8500000000000001,0.10431190580129623,
1.855,0.095633268356323242,
1.8600000000000001,0.091330014169216156,
1.865,0.086666151881217957,
1.8700000000000001,0.084382295608520508,
1.875,0.081401273608207703,
1.8799999999999999,0.079405903816223145,
1.885,0.076256595551967621,
1.8899999999999999,0.073972746729850769,
1.895,0.069621406495571136,
1.8999999999999999,0.065534517168998718,
1.905,0.056879919022321701,
1.9099999999999999,0.04935523122549057,
1.915,0.036493539810180664,
1.9199999999999999,0.027959149330854416,
1.925,0.017068784683942795,
1.9299999999999999,0.011443297378718853,
1.9350000000000001,0.00430325698107481,
1.9399999999999999,-0.0010097026824951172,
1.9450000000000001,-0.012428959831595421,
1.95,-0.023271244019269943,
1.9550000000000001,-0.044042270630598068,
1.96,-0.05966862291097641,
1.9650000000000001,-0.083132192492485046,
1.97,-0.097508430480957031,
1.9750000000000001,-0.11604368686676025,
1.98,-0.1260685920715332,
1.9850000000000001,-0.13703107833862305,
1.99,-0.14128625392913818,
1.9950000000000001,-0.14239212870597839,
2,-0.13926684856414795,98.765434265136719
2.0049999999999999,-0.12847265601158142,
2.0099999999999998,-0.11726975440979004,
2.0150000000000001,-0.095104381442070007,
2.02,-0.077506706118583679,
2.0249999999999999,-0.048994623124599457,
2.0299999999999998,-0.030002593994140625,
2.0350000000000001,-0.0033416352234780788,
2.04,0.012789567932486534,
2.0449999999999999,0.034786663949489594,
2.0499999999999998,0.048201285302639008,
2.0550000000000002,0.066207647323608398,
2.0600000000000001,0.076280638575553894,
2.0649999999999999,0.087603732943534851,
2.0699999999999998,0.092508003115653992,
2.0750000000000002,0.096667014062404633,
2.0800000000000001,0.098349854350090027,
2.085,0.10092218965291977,
2.0899999999999999,0.10327816009521484,
2.0950000000000002,0.10779778659343719,
2.1000000000000001,0.11101921647787094,
2.105,0.11505802720785141,
2.1099999999999999,0.11659662425518036,
2.1150000000000002,0.11654853820800781,
2.1200000000000001,0.11500994861125946,
2.125,0.11094709485769272,
2.1299999999999999,0.1076054573059082,
2.1349999999999998,0.10262906551361084,
2.1400000000000001,0.10000865161418915,
2.145,0.098085403442382812,
2.1499999999999999,0.098277732729911804,
2.1549999999999998,0.10015289485454559,
2.1600000000000001,0.10169148445129395,
2.165,0.10298967361450195,
2.1699999999999999,0.10267715156078339,
2.1749999999999998,0.10065774619579315,
2.1800000000000002,0.098782584071159363,
2.1850000000000001,0.096041962504386902,
2.1899999999999999,0.094623565673828125,
2.1949999999999998,0.093421541154384613,
2.2000000000000002,0.093493662774562836,
2.2050000000000001,0.095248624682426453,
2.21,0.097219944000244141,
2.2149999999999999,0.1000567302107811,
2.2200000000000002,0.10101835429668427,
2.2250000000000001,0.10063370317220688,
2.23,0.099599957466125488,
2.2349999999999999,0.099912486970424652,
2.2400000000000002,0.10277330875396729,
2.2450000000000001,0.10548989474773407,
2.25,0.10748525708913803,
2.2549999999999999,0.10690828412771225,
2.2599999999999998,0.10207613557577133,
2.2650000000000001,0.098470054566860199,
2.27,0.096474692225456238,
2.2749999999999999,0.098638340830802917,
2.2799999999999998,0.10592262446880341,
2.2850000000000001,0.11111538112163544,
2.29,0.11452913284301758,
2.2949999999999999,0.11445701122283936,
2.2999999999999998,0.10962486267089844,
2.3050000000000002,0.10604282468557358,
2.3100000000000001,0.10320603847503662,
2.3149999999999999,0.10327816009521484,
2.3199999999999998,0.10397534072399139,
2.3250000000000002,0.10306179523468018,
2.3300000000000001,0.096787214279174805,
2.335,0.089983746409416199,
2.3399999999999999,0.079934798181056976,
2.3450000000000002,0.076400838792324066,
2.3500000000000001,0.078684687614440918,
2.355,0.08416593074798584,
2.3599999999999999,0.092099308967590332,
2.3650000000000002,0.092796489596366882,
2.3700000000000001,0.082771584391593933,
2.375,0.069837771356105804,
2.3799999999999999,0.048754215240478516,
2.3849999999999998,0.039306282997131348,
2.3900000000000001,0.038705270737409592,
2.395,0.047792594879865646,
2.3999999999999999,0.070631109178066254,
2.4049999999999998,0.08731524646282196,
2.4100000000000001,0.10683616250753403,
2.415,0.11337518692016602,
2.4199999999999999,0.11282225698232651,
2.4249999999999998,0.10799010843038559,
2.4300000000000002,0.10282139480113983,
2.4350000000000001,0.10786990821361542,
2.4399999999999999,0.13945917785167694,
2.4449999999999998,0.17845293879508972,
2.4500000000000002,0.25098323822021484,
2.4550000000000001,0.28952023386955261,
2.46,0.28516888618469238,
2.4649999999999999,0.21424929797649384,
2.4700000000000002,-0.01247704029083252,
2.4750000000000001,-0.22667825222015381,
2.48,-0.56192362308502197,
2.4849999999999999,-0.73073625564575195,
2.4900000000000002,-0.80824297666549683,
2.4950000000000001,-0.72196149826049805,
2.5,-0.42753696441650391,
2.5049999999999999,-0.18097719550132751,
2.5099999999999998,0.14926771819591522,
2.5150000000000001,0.29567462205886841,
2.52,0.38347065448760986,
2.5249999999999999,0.3724360466003418,
2.5299999999999998,0.30526679754257202,
2.5350000000000001,0.2544691264629364,
2.54,0.21191737055778503,
2.5449999999999999,0.16943773627281189,
2.5499999999999998,0.14724831283092499,
2.5550000000000002,0.13909856975078583,
2.5600000000000001,0.13210277259349823,
2.5649999999999999,0.12936215102672577,
2.5699999999999998,0.12652537226676941,
2.5750000000000002,0.12472232431173325,
2.5800000000000001,0.12114028632640839,
2.585,0.11770248413085938,
2.5899999999999999,0.11058648675680161,
2.5950000000000002,0.10486483573913574,
2.6000000000000001,0.096090041100978851,
2.605,0.090969406068325043,
2.6099999999999999,0.08486311137676239,
2.6150000000000002,0.081425309181213379,
2.6200000000000001,0.075799822807312012,
2.625,0.071184039115905762,
2.6299999999999999,0.062793895602226257,
2.6349999999999998,0.056399106979370117,
2.6400000000000001,0.045292377471923828,
2.645,0.036156974732875824,
2.6499999999999999,0.018030405044555664,
2.6549999999999998,0.0023800134658813477,
2.6600000000000001,-0.025603175163269043,
2.665,-0.045556824654340744,
2.6699999999999999,-0.073443852365016937,
2.6749999999999998,-0.0883970707654953,
2.6800000000000002,-0.10289351642131805,
2.6850000000000001,-0.10726889222860336,
2.6899999999999999,-0.1083507165312767,
2.6949999999999998,-0.1076054573059082,
2.7000000000000002,-0.10717272758483887,
2.7050000000000001,-0.10736505687236786,
2.71,-0.10517736524343491,
2.7149999999999999,-0.099431678652763367,
2.7200000000000002,-0.08132915198802948,
2.7250000000000001,-0.063442990183830261,
2.73,-0.032526850700378418,
2.7349999999999999,-0.012549161911010742,
2.7400000000000002,0.012813608162105083,
2.7450000000000001,0.026636919006705284,
2.75,0.045268338173627853,
2.7549999999999999,0.057961743324995041,
2.7599999999999998,0.078396201133728027,
2.7650000000000001,0.092051230370998383,
2.77,0.10950466245412827,
2.7749999999999999,0.11743804067373276,
2.7799999999999998,0.12284716218709946,
2.7850000000000001,0.12291928380727768,
2.79,0.12073159217834473,
2.7949999999999999,0.11945744603872299,
2.7999999999999998,0.1193612813949585,
2.8050000000000002,0.12032290548086166,
2.8100000000000001,0.12169321626424789,
2.8149999999999999,0.12157301604747772,
2.8199999999999998,0.1191689595580101,
2.8250000000000002,0.11623601615428925,
2.8300000000000001,0.11063456535339355,
2.835,0.10657171905040741,
2.8399999999999999,0.10106643289327621,
2.8450000000000002,0.098566219210624695,
2.8500000000000001,0.0976286381483078,
2.855,0.098902784287929535,
2.8599999999999999,0.1023886650800705,
2.8650000000000002,0.10445614904165268,
2.8700000000000001,0.10556201636791229,
2.875,0.10479271411895752,
2.8799999999999999,0.10243674367666245,
2.8849999999999998,0.10092218965291977,
2.8900000000000001,0.099191270768642426,
2.895,0.098229646682739258,
2.8999999999999999,0.096691057085990906,
2.9049999999999998,0.095585189759731293,
2.9100000000000001,0.094166800379753113,
2.915,0.09334941953420639,
2.9199999999999999,0.091666579246520996,
2.9249999999999998,0.089887581765651703,
2.9300000000000002,0.086257457733154297,
2.9350000000000001,0.083853408694267273,
2.9399999999999999,0.081785917282104492,
2.9449999999999998,0.08200228214263916,
2.9500000000000002,0.084358260035514832,
2.9550000000000001,0.086545944213867188,
2.96,0.089551016688346863,
2.9649999999999999,0.091161727905273438,
2.9700000000000002,0.093253254890441895,
2.9750000000000001,0.094695687294006348,
2.98,0.096715092658996582,
2.9849999999999999,0.097460351884365082,
2.9900000000000002,0.096642971038818359,
2.9950000000000001,0.094551444053649902,
3,0.089911624789237976,99.378883361816406
3.0049999999999999,0.086738273501396179,
3.0099999999999998,0.083420678973197937,
3.0150000000000001,0.082555219531059265,
3.02,0.082555219531059265,
3.0249999999999999,0.082483097910881042,
3.0299999999999998,0.080656014382839203,
3.0350000000000001,0.07808367908000946,
3.04,0.07346789538860321,
3.0449999999999999,0.071328282356262207,
3.0499999999999998,0.071424447000026703,
3.0550000000000002,0.073660217225551605,
3.0600000000000001,0.077771149575710297,
3.0649999999999999,0.078492365777492523,
3.0699999999999998,0.072337985038757324,
3.0750000000000002,0.062313079833984375,
3.0800000000000001,0.04046022891998291,
3.085,0.024713676422834396,
3.0899999999999999,0.0069477162323892117,
3.0950000000000002,0.0029329459648579359,
3.1000000000000001,0.011755824089050293,
3.105,0.02644459530711174,
3.1099999999999999,0.055509608238935471,
3.1150000000000002,0.074669919908046722,
3.1200000000000001,0.09556114673614502,
3.125,0.10140299797058105,
3.1299999999999999,0.097436308860778809,
3.1349999999999998,0.088998079299926758,
3.1400000000000001,0.077650949358940125,
3.145,0.079141460359096527,
3.1499999999999999,0.10784586519002914,
3.1549999999999998,0.1469598263502121,
3.1600000000000001,0.22206246852874756,
3.165,0.26273906230926514,
3.1699999999999999,0.25978207588195801,
3.1749999999999998,0.18758833408355713,
3.1800000000000002,-0.044066309928894043,
3.1850000000000001,-0.262114018201828,
3.1899999999999999,-0.60038846731185913,
3.1949999999999998,-0.76751828193664551,
3.2000000000000002,-0.8357694149017334,
3.2050000000000001,-0.73996782302856445,
3.21,-0.43107092380523682,
3.2149999999999999,-0.17830869555473328,
3.2200000000000002,0.15157561004161835,
3.2250000000000001,0.29103478789329529,
3.23,0.36224287748336792,
3.2349999999999999,0.34010154008865356,
3.2400000000000002,0.26302754878997803,
3.2450000000000001,0.2121337354183197,
3.25,0.16051869094371796,
3.2549999999999999,0.14241616427898407,
3.2599999999999998,0.1284966915845871,
3.2650000000000001,0.12190958112478256,
3.27,0.111427903175354,
3.2749999999999999,0.10433594882488251,
3.2799999999999998,0.095392867922782898,
3.2850000000000001,0.091017484664916992,
3.29,0.085584327578544617,
3.2949999999999999,0.081497430801391602,
3.2999999999999998,0.073419809341430664,
3.3050000000000002,0.067193314433097839,
3.3100000000000001,0.058947406709194183,
3.3149999999999999,0.055485568940639496,
3.3199999999999998,0.053730607032775879,
3.3250000000000002,0.053706567734479904,
3.3300000000000001,0.051999688148498535,
3.335,0.048032999038696289,
3.3399999999999999,0.03675798699259758,
3.3450000000000002,0.026276310905814171,
3.3500000000000001,0.0080295410007238388,
3.355,-0.0046879053115844727,
3.3599999999999999,-0.023175081238150597,
3.3650000000000002,-0.034714542329311371,
3.3700000000000001,-0.050893824547529221,
3.375,-0.061567824333906174,
3.3799999999999999,-0.078780852258205414,
3.3849999999999998,-0.091594457626342773,
3.3900000000000001,-0.11198084056377411,
3.395,-0.1246742457151413,
3.3999999999999999,-0.13852159678936005,
3.4049999999999998,-0.14272868633270264,
3.4100000000000001,-0.14176706969738007,
3.415,-0.13780038058757782,
3.4199999999999999,-0.12957851588726044,
3.4249999999999998,-0.12279908359050751,
3.4300000000000002,-0.10847091674804688,
3.4350000000000001,-0.094359122216701508,
3.4399999999999999,-0.065462395548820496,
3.4449999999999998,-0.042647920548915863,
3.4500000000000002,-0.0085103511810302734,
3.4550000000000001,0.01108268927782774,
3.46,0.033368270844221115,
3.4649999999999999,0.044234596192836761,
3.4700000000000002,0.05755305290222168,
3.4750000000000001,0.065847039222717285,
3.48,0.077674984931945801,
3.4849999999999999,0.084286138415336609,
3.4900000000000002,0.090849205851554871,
3.4950000000000001,0.092988811433315277,
3.5,0.094623565673828125,
3.5049999999999999,0.095897719264030457,
3.5099999999999998,0.098926827311515808,
3.5150000000000001,0.10106643289327621,
3.52,0.10246078670024872,
3.5249999999999999,0.10149916261434555,
3.5299999999999998,0.097748838365077972,
3.5350000000000001,0.094815894961357117,
3.54,0.09164254367351532,
3.5449999999999999,0.090656876564025879,
3.5499999999999998,0.089719295501708984,
3.5550000000000002,0.088421106338500977,
3.5600000000000001,0.084430381655693054,
3.5649999999999999,0.080752179026603699,
3.5699999999999998,0.075343057513237,
3.5750000000000002,0.072746679186820984,
3.5800000000000001,0.070871517062187195,
3.585,0.070655152201652527,
3.5899999999999999,0.07072727382183075,
3.5950000000000002,0.070150300860404968,
3.6000000000000001,0.069188676774501801,
3.605,0.067914530634880066,
3.6099999999999999,0.065774917602539062,
3.6150000000000002,0.064476728439331055,
3.6200000000000001,0.063274703919887543,
3.625,0.063178539276123047,
3.6299999999999999,0.06394784152507782,
3.6349999999999998,0.064933501183986664,
3.6400000000000001,0.065221987664699554,
3.645,0.065294109284877777,
3.6499999999999999,0.06565471738576889,
3.6549999999999998,0.067770287394523621,
3.6600000000000001,0.070222422480583191,
3.665,0.073972746729850769,
3.6699999999999999,0.075126692652702332,
3.6749999999999998,0.073131322860717773,
3.6800000000000002,0.069597363471984863,
3.6850000000000001,0.063515111804008484,
3.6899999999999999,0.060630243271589279,
3.6949999999999998,0.059476297348737717,
3.7000000000000002,0.060558121651411057,
3.7050000000000001,0.063226625323295593,
3.71,0.064741179347038269,
3.7149999999999999,0.065871082246303558,
3.7200000000000002,0.065871082246303558,
3.7250000000000001,0.064837336540222168,
3.73,0.063154503703117371,
3.7349999999999999,0.058658920228481293,
3.7400000000000002,0.054451823234558105,
3.7450000000000001,0.047816634178161621,
3.75,0.044378839433193207,
3.7549999999999999,0.042143069207668304,
3.7599999999999998,0.042551755905151367,
3.7650000000000001,0.043946109712123871,
3.77,0.043561458587646484,
3.7749999999999999,0.038104258477687836,
3.7799999999999998,0.030627649277448654,
3.7850000000000001,0.015313824638724327,
3.79,0.0046638650819659233,
3.7949999999999999,-0.0071881217882037163,
3.7999999999999998,-0.010097026824951172,
3.8050000000000002,-0.0081737842410802841,
3.8100000000000001,0.0030771892052143812,
3.8149999999999999,0.020698904991149902,
3.8199999999999998,0.03322402760386467,
3.8250000000000002,0.048730175942182541,
3.8300000000000001,0.054644148796796799,
3.835,0.055197082459926605,
3.8399999999999999,0.051542919129133224,
3.8450000000000002,0.048634015023708344,
3.8500000000000001,0.055942337960004807,
3.855,0.091810822486877441,
3.8599999999999999,0.13267974555492401,
3.8650000000000002,0.20112316310405731,
3.8700000000000001,0.2291063517332077,
3.875,0.19626697897911072,
3.8799999999999999,0.10234057903289795,
3.8849999999999998,-0.14912347495555878,
3.8900000000000001,-0.3628198504447937,
3.895,-0.66161972284317017,
3.8999999999999999,-0.78516405820846558,
3.9049999999999998,-0.7842024564743042,
3.9100000000000001,-0.6554412841796875,
3.915,-0.33541363477706909,
3.9199999999999999,-0.10140299797058105,
3.9249999999999998,0.17725090682506561,
3.9300000000000002,0.28113007545471191,
3.9350000000000001,0.31555613875389099,
3.9399999999999999,0.28343796730041504,
3.9449999999999998,0.20708522200584412,
3.9500000000000002,0.1605667769908905,
3.9550000000000001,0.11313478648662567,
3.96,0.095248624682426453,
3.9649999999999999,0.080656014382839203,
3.9700000000000002,0.074838206171989441,
3.9750000000000001,0.067938566207885742,
3.98,0.063611268997192383,
3.9849999999999999,0.056952040642499924,
3.9900000000000002,0.052408378571271896,
3.9950000000000001,0.045340459793806076,
4,0.040243864059448242,96.60107421875
4.0049999999999999,0.031372904777526855,
4.0099999999999998,0.024569433182477951,
4.0149999999999997,0.014063715934753418,
4.0199999999999996,0.0080295410007238388,
4.0250000000000004,0.002043446060270071,
4.0300000000000002,-0.00026444596005603671,
4.0350000000000001,-0.0039426488801836967,
4.04,-0.0085103511810302734,
4.0449999999999999,-0.019929608330130577,
4.0499999999999998,-0.029906433075666428,
4.0549999999999997,-0.04582127183675766,
4.0599999999999996,-0.056086581200361252,
4.0650000000000004,-0.071664854884147644,
4.0700000000000003,-0.083420678973197937,
4.0750000000000002,-0.10448019206523895,
4.0800000000000001,-0.120106540620327,
4.085,-0.14265656471252441,
4.0899999999999999,-0.15520572662353516,
4.0949999999999998,-0.16958197951316833,
4.0999999999999996,-0.17715474963188171,
4.1050000000000004,-0.18744409084320068,
4.1100000000000003,-0.19364655017852783,
4.1150000000000002,-0.1992720365524292,
4.1200000000000001,-0.19823829829692841,
4.125,-0.18684308230876923,
4.1299999999999999,-0.1729716956615448,
4.1349999999999998,-0.14607033133506775,
4.1399999999999997,-0.12657344341278076,
4.1449999999999996,-0.097989246249198914,
4.1500000000000004,-0.080079041421413422,
4.1550000000000002,-0.054908595979213715,
4.1600000000000001,-0.039138000458478928,
4.165,-0.01721302792429924,
4.1699999999999999,-0.00430325698107481,
4.1749999999999998,0.011611580848693848,
4.1799999999999997,0.019689202308654785,
4.1849999999999996,0.028704404830932617,
4.1900000000000004,0.03339231014251709,
4.1950000000000003,0.039594769477844238,
4.2000000000000002,0.043393176048994064,
4.2050000000000001,0.047792594879865646,
4.21,0.049114823341369629,
4.2149999999999999,0.04798492044210434,
4.2199999999999998,0.045677028596401215,
4.2249999999999996,0.041998825967311859,
4.2300000000000004,0.040724676102399826,
4.2350000000000003,0.04137377068400383,
4.2400000000000002,0.042960446327924728,
4.2450000000000001,0.045003890991210938,
4.25,0.045003890991210938,
4.2549999999999999,0.042094986885786057,
4.2599999999999998,0.038368701934814453,
4.2649999999999997,0.031204622238874435,
4.2699999999999996,0.026059946045279503,
4.2750000000000004,0.018631419166922569,
4.2800000000000002,0.014183918945491314,
4.2850000000000001,0.0085103511810302734,
4.29,0.0054812431335449219,
4.2949999999999999,0.002067486522719264,
4.2999999999999998,0.00055293244076892734,
4.3049999999999997,-0.00064909458160400391,
4.3099999999999996,-0.0008895000210031867,
4.3150000000000004,-0.00084141892148181796,
4.3200000000000003,-0.0007692973013035953,
4.3250000000000002,-0.00072121620178222656,
4.3300000000000001,-0.00040868920041248202,
4.335,0.0011539459228515625,
4.3399999999999999,0.0031973919831216335,
4.3449999999999998,0.0073323650285601616,
4.3499999999999996,0.0100008649751544,
4.3550000000000004,0.012092391960322857,
4.3600000000000003,0.011707743629813194,
4.3650000000000002,0.0091834869235754013,
4.3700000000000001,0.0073564052581787109,
4.375,0.0062986216507852077,
4.3799999999999999,0.0069957971572875977,
4.3849999999999998,0.008822878822684288,
4.3899999999999997,0.009255608543753624,
4.3949999999999996,0.0074766082689166069,
4.4000000000000004,0.0050485134124755859,
4.4050000000000002,0.0017068784218281507,
4.4100000000000001,0.00084141892148181796,
4.415,0.0017309188842773438,
4.4199999999999999,0.0026444594841450453,
4.4249999999999998,0.0018992027034983039,
4.4299999999999997,-0.00074525678064674139,
4.4349999999999996,-0.007091959472745657,
4.4400000000000004,-0.011443297378718853,
4.4450000000000003,-0.015698473900556564,
4.4500000000000002,-0.016515851020812988,
4.4550000000000001,-0.015698473900556564,
4.46,-0.015049378387629986,
4.4649999999999999,-0.015986960381269455,
4.4699999999999998,-0.018895864486694336,
4.4749999999999996,-0.027766823768615723,
4.4800000000000004,-0.036830108612775803,
4.4850000000000003,-0.053706567734479904,
4.4900000000000002,-0.065053701400756836,
4.4950000000000001,-0.076881647109985352,
4.5,-0.078251957893371582,
4.5049999999999999,-0.067914530634880066,
4.5099999999999998,-0.053706567734479904,
4.5149999999999997,-0.027478337287902832,
4.5199999999999996,-0.011515418998897076,
4.5250000000000004,0.0027646622620522976,
4.5300000000000002,0.0036060810089111328,
4.5350000000000001,-0.0064909458160400391,
4.54,-0.015986960381269455,
4.5449999999999999,-0.021035473793745041,
4.5499999999999998,-0.0097604598850011826,
4.5549999999999997,0.037431120872497559,
4.5599999999999996,0.085464119911193848,
4.5650000000000004,0.15626351535320282,
4.5700000000000003,0.17674605548381805,
4.5750000000000002,0.11849582195281982,
4.5800000000000001,0.0018030405044555664,
4.585,-0.28043290972709656,
4.5899999999999999,-0.5040820837020874,
4.5949999999999998,-0.79208773374557495,
4.5999999999999996,-0.89151942729949951,
4.6050000000000004,-0.84081792831420898,
4.6100000000000003,-0.68104445934295654,
4.6150000000000002,-0.33507704734802246,
4.6200000000000001,-0.101643405854702,
4.625,0.15506148338317871,
4.6299999999999999,0.23874661326408386,
4.6349999999999998,0.24898788332939148,
4.6399999999999997,0.20900845527648926,
4.6449999999999996,0.13126134872436523,
4.6500000000000004,0.086425743997097015,
4.6550000000000002,0.038873553276062012,
4.6600000000000001,0.018078487366437912,
4.665,-0.0018030405044555664,
4.6699999999999999,-0.0087747974321246147,
4.6749999999999998,-0.011130770668387413,
4.6799999999999997,-0.0093998517841100693,
4.6849999999999996,-0.0077891349792480469,
4.6900000000000004,-0.010361473076045513,
4.6950000000000003,-0.020795067772269249,
4.7000000000000002,-0.030122797936201096,
4.7050000000000001,-0.042359434068202972,
4.71,-0.04723966121673584,
4.7149999999999999,-0.050196647644042969,
4.7199999999999998,-0.051446758210659027,
4.7249999999999996,-0.05630294606089592,
4.7300000000000004,-0.062505409121513367,
4.7350000000000003,-0.074669919908046722,
4.7400000000000002,-0.082867741584777832,
4.7450000000000001,-0.093109011650085449,
4.75,-0.098902784287929535,
4.7549999999999999,-0.10902385413646698,
4.7599999999999998,-0.11864006519317627,
4.7649999999999997,-0.13859371840953827,
4.7699999999999996,-0.15458068251609802,
4.7750000000000004,-0.1791260689496994,
4.7800000000000002,-0.19393503665924072,
4.7850000000000001,-0.21235010027885437,
4.79,-0.22232691943645477,
4.7949999999999999,-0.23521265387535095,
4.7999999999999998,-0.24297773838043213,
4.8049999999999997,-0.25302669405937195,
4.8099999999999996,-0.257834792137146,
4.8150000000000004,-0.26011866331100464,
4.8200000000000003,-0.25732994079589844,
4.8250000000000002,-0.24550199508666992,
4.8300000000000001,-0.23261627554893494,
4.835,-0.20730158686637878,
4.8399999999999999,-0.18802106380462646,
4.8449999999999998,-0.15847525000572205,
4.8499999999999996,-0.13979575037956238,
4.8550000000000004,-0.1146012544631958,
4.8600000000000003,-0.09979228675365448,
4.8650000000000002,-0.080199241638183594,
4.8700000000000001,-0.068683825433254242,
4.875,-0.05397101491689682,
4.8799999999999999,-0.046205919235944748,
4.8849999999999998,-0.037863850593566895,
4.8899999999999997,-0.03413756936788559,
4.8949999999999996,-0.030002593994140625,
4.9000000000000004,-0.027406215667724609,
4.9050000000000002,-0.023199122399091721,
4.9100000000000001,-0.020602744072675705,
4.915,-0.018631419166922569,
4.9199999999999999,-0.019424756988883018,
4.9249999999999998,-0.023872256278991699,
4.9299999999999997,-0.028031270951032639,
4.9349999999999996,-0.033873122185468674,
4.9400000000000004,-0.036397378891706467,
4.9450000000000003,-0.037743650376796722,
4.9500000000000002,-0.037503242492675781,
4.9550000000000001,-0.037046473473310471,
4.96,-0.037431120872497559,
4.9649999999999999,-0.039546690881252289,
4.9699999999999998,-0.041926704347133636,
4.9749999999999996,-0.046710770577192307,
4.9800000000000004,-0.050557255744934082,
4.9850000000000003,-0.056567393243312836,
4.9900000000000002,-0.060053270310163498,
4.9950000000000001,-0.063298746943473816,
5,-0.063851676881313324,96
5.0049999999999999,-0.062841974198818207,
5.0099999999999998,-0.061760149896144867,
5.0149999999999997,-0.060822568833827972,
5.0199999999999996,-0.060846608132123947,
5.0250000000000004,-0.061327420175075531,
5.0300000000000002,-0.061519742012023926,
5.0350000000000001,-0.061591863632202148,
5.04,-0.061688028275966644,
5.0449999999999999,-0.061712067574262619,
5.0499999999999998,-0.061062972992658615,
5.0549999999999997,-0.058226190507411957,
5.0599999999999996,-0.055341325700283051,
5.0650000000000004,-0.05168716236948967,
5.0700000000000003,-0.051326554268598557,
5.0750000000000002,-0.05522112175822258,
5.0800000000000001,-0.059692662209272385,
5.085,-0.065197944641113281,
5.0899999999999999,-0.065774917602539062,
5.0949999999999998,-0.060990851372480392,
5.0999999999999996,-0.055533647537231445,
5.1050000000000004,-0.048369567841291428,
5.1100000000000003,-0.046446323394775391,
5.1150000000000002,-0.049018662422895432,
5.1200000000000001,-0.053442120552062988,
5.125,-0.061111055314540863,
5.1299999999999999,-0.065197944641113281,
5.1349999999999998,-0.068251095712184906,
5.1399999999999997,-0.068419381976127625,
5.1449999999999996,-0.067529879510402679,
5.1500000000000004,-0.067361593246459961,
5.1550000000000002,-0.069020390510559082,
5.1600000000000001,-0.071256160736083984,
5.165,-0.074645876884460449,
5.1699999999999999,-0.075775787234306335,
5.1749999999999998,-0.075319014489650726,
5.1799999999999997,-0.074501633644104004,
5.1849999999999996,-0.075823865830898285,
5.1900000000000004,-0.080319449305534363,
5.1950000000000003,-0.093998514115810394,
5.2000000000000002,-0.10678808391094208,
5.2050000000000001,-0.12674173712730408,
5.21,-0.13686279952526093,
5.2149999999999999,-0.14188727736473083,
5.2199999999999998,-0.13707916438579559,
5.2249999999999996,-0.1192651242017746,
5.2300000000000004,-0.10325412452220917,
5.2350000000000003,-0.079598233103752136,
5.2400000000000002,-0.067650079727172852,
5.2450000000000001,-0.059452258050441742,
5.25,-0.060822568833827972,
5.2549999999999999,-0.068755947053432465,
5.2599999999999998,-0.072313949465751648,
5.2649999999999997,-0.061736106872558594,
5.2699999999999996,-0.037286877632141113,
5.2750000000000004,0.026540756225585938,
5.2800000000000002,0.077170133590698242,
5.2850000000000001,0.12782356142997742,
5.29,0.11580328643321991,
5.2949999999999999,-0.012837648391723633,
5.2999999999999998,-0.17859718203544617,
5.3049999999999997,-0.50778430700302124,
5.3099999999999996,-0.72917366027832031,
5.3150000000000004,-0.95424115657806396,
5.3200000000000003,-0.98164737224578857,
5.3250000000000002,-0.81586384773254395,
5.3300000000000001,-0.60012400150299072,
5.335,-0.22915443778038025,
5.3399999999999999,-0.018391013145446777,
5.3449999999999998,0.17054359614849091,
5.3499999999999996,0.20713329315185547,
5.3550000000000004,0.17090420424938202,
5.3600000000000003,0.12111624330282211,
5.3650000000000002,0.053081512451171875,
5.3700000000000001,0.022381743416190147,
5.375,-0.0049523515626788139,
5.3799999999999999,-0.016636054962873459,
5.3849999999999998,-0.03060360811650753,
5.3899999999999997,-0.03796001523733139,
5.3949999999999996,-0.045003890991210938,
5.4000000000000004,-0.047431986778974533,
5.4050000000000002,-0.050316851586103439,
5.4100000000000001,-0.053177677094936371,
5.415,-0.059404175728559494,
5.4199999999999999,-0.064116120338439941,
5.4249999999999998,-0.070558987557888031,
5.4299999999999997,-0.074285268783569336,
5.4349999999999996,-0.080054998397827148,
5.4400000000000004,-0.084790989756584167,
5.4450000000000003,-0.093421541154384613,
5.4500000000000002,-0.099648043513298035,
5.4550000000000001,-0.10859112441539764,
5.46,-0.11404832452535629,
5.4649999999999999,-0.12212594598531723,
5.4699999999999998,-0.12825629115104675,
5.4749999999999996,-0.14025251567363739,
5.4800000000000004,-0.15075823664665222,
5.4850000000000003,-0.17054359614849091,
5.4900000000000002,-0.18583337962627411,
5.4950000000000001,-0.21016240119934082,
5.5,-0.22607724368572235,
5.5049999999999999,-0.24740120768547058,
5.5099999999999998,-0.26377281546592712,
5.5149999999999997,-0.27129751443862915,
5.5199999999999996,-0.27603349089622498,
5.5250000000000004,-0.27860581874847412,
5.5300000000000002,-0.27805289626121521,
5.5350000000000001,-0.27480742335319519,
5.54,-0.27081668376922607,
5.5449999999999999,-0.25997442007064819,
5.5499999999999998,-0.240669846534729,
5.5549999999999997,-0.223048135638237,
5.5599999999999996,-0.19280514121055603,
5.5650000000000004,-0.17277936637401581,
5.5700000000000003,-0.14595012366771698,
5.5750000000000002,-0.130083367228508,
5.5800000000000001,-0.1070525273680687,
5.585,-0.091161727905273438,
5.5899999999999999,-0.067626044154167175,
5.5949999999999998,-0.054283540695905685,
5.5999999999999996,-0.041157405823469162,
5.6050000000000004,-0.037358999252319336,
5.6100000000000003,-0.036156974732875824,
5.6150000000000002,-0.035892527550458908,
5.6200000000000001,-0.03368079662322998,
5.625,-0.031420987099409103,
5.6299999999999999,-0.029930472373962402,
5.6349999999999998,-0.031613312661647797,
5.6399999999999997,-0.038392744958400726,
5.6449999999999996,-0.043633580207824707,
5.6500000000000004,-0.047215621918439865,
5.6550000000000002,-0.046542488038539886,
5.6600000000000001,-0.039258204400539398,
5.665,-0.033536553382873535,
5.6699999999999999,-0.029137134552001953,
5.6749999999999998,-0.031012296676635742,
5.6799999999999997,-0.04046022891998291,
5.6849999999999996,-0.048561893403530121,
5.6900000000000004,-0.057721339166164398,
5.6950000000000003,-0.059548418968915939,
5.7000000000000002,-0.055581729859113693,
5.7050000000000001,-0.050364933907985687,
5.71,-0.045268338173627853,
5.7149999999999999,-0.041469931602478027,
5.7199999999999998,-0.044282674789428711,
5.7249999999999996,-0.049138866364955902,
5.7300000000000004,-0.057721339166164398,
5.7350000000000003,-0.06212075799703598,
5.7400000000000002,-0.06394784152507782,
5.7450000000000001,-0.061519742012023926,
5.75,-0.054283540695905685,
5.7549999999999999,-0.049186944961547852,
5.7599999999999998,-0.044811569154262543,
5.7649999999999997,-0.044931769371032715,
5.7699999999999996,-0.048032999038696289,
5.7750000000000004,-0.050052404403686523,
5.7800000000000002,-0.050100486725568771,
5.7850000000000001,-0.047864716500043869,
5.79,-0.043224893510341644,
5.7949999999999999,-0.041157405823469162,
5.7999999999999998,-0.041854582726955414,
5.8049999999999997,-0.044979851692914963,
5.8099999999999996,-0.051759283989667892,
5.8150000000000004,-0.055966377258300781,
5.8200000000000003,-0.059115689247846603,
5.8250000000000002,-0.058274269104003906,
5.8300000000000001,-0.05293726921081543,
5.835,-0.047864716500043869,
5.8399999999999999,-0.040917001664638519,
5.8449999999999998,-0.038248501718044281,
5.8499999999999996,-0.038512945175170898,
5.8550000000000004,-0.041638217866420746,
5.8600000000000003,-0.050076447427272797,
5.8650000000000002,-0.057408809661865234,
5.8700000000000001,-0.068491503596305847,
5.875,-0.073924660682678223,
5.8799999999999999,-0.076040230691432953,
5.8849999999999998,-0.073107287287712097,
5.8899999999999997,-0.065919160842895508,
5.8949999999999996,-0.063346825540065765,
5.9000000000000004,-0.069332920014858246,
5.9050000000000002,-0.080728136003017426,
5.9100000000000001,-0.10373493283987045,
5.915,-0.11760632693767548,
5.9199999999999999,-0.12796780467033386,
5.9249999999999998,-0.12585222721099854,
5.9299999999999997,-0.11097113788127899,
5.9349999999999996,-0.096065998077392578,
5.9400000000000004,-0.071520611643791199,
5.9450000000000003,-0.056495271623134613,
5.9500000000000002,-0.040532350540161133,
5.9550000000000001,-0.036565661430358887,
5.96,-0.041253566741943359,
5.9649999999999999,-0.047936838120222092,
5.9699999999999998,-0.050076447427272797,
5.9749999999999996,-0.036950312554836273,
5.9800000000000004,0.01322229765355587,
5.9850000000000003,0.062096714973449707,
5.9900000000000002,0.12777547538280487,
5.9950000000000001,0.13789653778076172,
6,0.05288919061422348,91.304344177246094
6.0049999999999999,-0.08594493567943573,
6.0099999999999998,-0.39647659659385681,
6.0149999999999997,-0.62793892621994019,
6.0199999999999996,-0.90252995491027832,
6.0250000000000004,-0.97698354721069336,
6.0300000000000002,-0.87709510326385498,
6.0350000000000001,-0.68741524219512939,
6.04,-0.316205233335495,
6.0449999999999999,-0.082098446786403656,
6.0499999999999998,0.15727321803569794,
6.0549999999999997,0.22429823875427246,
6.0599999999999996,0.21314343810081482,
6.0650000000000004,0.16489407420158386,
6.0700000000000003,0.0845746248960495,
6.0750000000000002,0.043345093727111816,
6.0800000000000001,0.0060101351700723171,
6.085,-0.0068996353074908257,
6.0899999999999999,-0.017741918563842773,
6.0949999999999998,-0.022838514298200607,
6.0999999999999996,-0.029714107513427734,
6.1050000000000004,-0.034089487046003342,
6.1100000000000003,-0.04017174243927002,
6.1150000000000002,-0.0438259057700634,
6.1200000000000001,-0.048730175942182541,
6.125,-0.051759283989667892,
6.1299999999999999,-0.056326985359191895,
6.1349999999999998,-0.059644579887390137,
6.1399999999999997,-0.065414309501647949,
6.1449999999999996,-0.0699339359998703,
6.1500000000000004,-0.077843271195888519,
6.1550000000000002,-0.083877444267272949,
6.1600000000000001,-0.093854270875453949,
6.165,-0.10072986781597137,
6.1699999999999999,-0.11061052978038788,
6.1749999999999998,-0.11695723235607147,
6.1799999999999997,-0.12724658846855164,
6.1849999999999996,-0.13568481802940369,
6.1900000000000004,-0.15232086181640625,
6.1950000000000003,-0.16631245613098145,
6.2000000000000002,-0.19042512774467468,
6.2050000000000001,-0.20715734362602234,
6.21,-0.2305968701839447,
6.2149999999999999,-0.24389128386974335,
6.2199999999999998,-0.25942146778106689,
6.2249999999999996,-0.26675385236740112,
6.2300000000000004,-0.27343711256980896,
6.2350000000000003,-0.27504783868789673,
6.2400000000000002,-0.27286013960838318,
6.2450000000000001,-0.26783567667007446,
6.25,-0.25403639674186707,
6.2549999999999999,-0.2405736893415451,
6.2599999999999998,-0.21513879299163818,
6.2649999999999997,-0.19607464969158173,
6.2699999999999996,-0.16717791557312012,
6.2750000000000004,-0.14921963214874268,
6.2800000000000002,-0.12549161911010742,
6.2850000000000001,-0.11150002479553223,
6.29,-0.09164254367351532,
6.2949999999999999,-0.078300043940544128,
6.2999999999999998,-0.058418512344360352,
6.3049999999999997,-0.046398244798183441,
6.3099999999999996,-0.032887458801269531,
6.3150000000000004,-0.027742784470319748,
6.3200000000000003,-0.024954080581665039,
6.3250000000000002,-0.024737715721130371,
6.3300000000000001,-0.024040540680289268,
6.335,-0.022718310356140137,
6.3399999999999999,-0.020771026611328125,
6.3449999999999998,-0.020698904991149902,
6.3499999999999996,-0.023367404937744141,
6.3550000000000004,-0.026276310905814171,
6.3600000000000003,-0.030002593994140625,
6.3650000000000002,-0.030964216217398643,
6.3700000000000001,-0.03031512163579464,
6.375,-0.029641985893249512,
6.3799999999999999,-0.03060360811650753,
6.3849999999999998,-0.033079784363508224,
6.3899999999999997,-0.038368701934814453,
6.3949999999999996,-0.041662257164716721,
6.4000000000000004,-0.04478752613067627,
6.4050000000000002,-0.045725107192993164,
6.4100000000000001,-0.046638648957014084,
6.415,-0.047624312341213226,
6.4199999999999999,-0.049980282783508301,
6.4249999999999998,-0.05168716236948967,
6.4299999999999997,-0.053490202873945236,
6.4349999999999996,-0.053995054215192795,
6.4400000000000004,-0.053995054215192795,
6.4450000000000003,-0.053682528436183929,
6.4500000000000002,-0.052624743431806564,
6.4550000000000001,-0.051350593566894531,
6.46,-0.048682093620300293,
6.4649999999999999,-0.046758852899074554,
6.4699999999999998,-0.044499039649963379,
6.4749999999999996,-0.04353741928935051,
6.4800000000000004,-0.042479634284973145,
6.4850000000000003,-0.041614174842834473,
6.4900000000000002,-0.040027499198913574,
6.4950000000000001,-0.039522647857666016,
6.5,-0.041325688362121582,
6.5049999999999999,-0.044619243592023849,
6.5099999999999998,-0.051038067787885666,
6.5149999999999997,-0.054283540695905685,
6.5199999999999996,-0.055028796195983887,
6.5250000000000004,-0.052961312234401703,
6.5300000000000002,-0.049186944961547852,
6.5350000000000001,-0.048489771783351898,
6.54,-0.051326554268598557,
6.5449999999999999,-0.054187379777431488,
6.5499999999999998,-0.055317282676696777,
6.5549999999999997,-0.052456460893154144,
6.5599999999999996,-0.044667325913906097,
6.5650000000000004,-0.040364068001508713,
6.5700000000000003,-0.040436189621686935,
6.5750000000000002,-0.045677028596401215,
6.5800000000000001,-0.058057904243469238,
6.585,-0.065774917602539062,
6.5899999999999999,-0.071376368403434753,
6.5949999999999998,-0.070246458053588867,
6.5999999999999996,-0.06428440660238266,
6.6050000000000004,-0.061062972992658615,
6.6100000000000003,-0.063467025756835938,
6.6150000000000002,-0.071544647216796875,
6.6200000000000001,-0.090969406068325043,
6.625,-0.10467251390218735,
6.6299999999999999,-0.11787077039480209,
6.6349999999999998,-0.1183275431394577,
6.6399999999999997,-0.10592262446880341,
6.6449999999999996,-0.091450214385986328,
6.6500000000000004,-0.066904827952384949,
6.6550000000000002,-0.052384339272975922,
6.6600000000000001,-0.038224458694458008,
6.665,-0.035700201988220215,
6.6699999999999999,-0.041830539703369141,
6.6749999999999998,-0.048898458480834961,
6.6799999999999997,-0.050893824547529221,
6.6849999999999996,-0.03692626953125,
6.6900000000000004,0.016539892181754112,
6.6950000000000003,0.06890019029378891,
6.7000000000000002,0.13897836208343506,
6.7050000000000001,0.14926771819591522,
6.71,0.05863487720489502,
6.7149999999999999,-0.086185336112976074,
6.7199999999999998,-0.40248674154281616,
6.7249999999999996,-0.63183349370956421,
6.7300000000000004,-0.89252912998199463,
6.7350000000000003,-0.95347189903259277,
6.7400000000000002,-0.8358655571937561,
6.7450000000000001,-0.64065635204315186,
6.75,-0.27281206846237183,
6.7549999999999999,-0.046638648957014084,
6.7599999999999998,0.17895779013633728,
6.7649999999999997,0.23903509974479675,
6.7699999999999996,0.22350490093231201,
6.7750000000000004,0.17564019560813904,
6.7800000000000002,0.0976286381483078,
6.7850000000000001,0.057144366204738617,
6.79,0.018607378005981445,
6.7949999999999999,0.0038464865647256374,
6.7999999999999998,-0.0092315673828125,
6.8049999999999997,-0.01430412195622921,
6.8099999999999996,-0.018415054306387901,
6.8150000000000004,-0.019977688789367676,
6.8200000000000003,-0.02291063591837883,
6.8250000000000002,-0.02632439136505127,
6.8300000000000001,-0.03368079662322998,
6.835,-0.039162039756774902,
6.8399999999999999,-0.046758852899074554,
6.8449999999999998,-0.051206350326538086,
6.8499999999999996,-0.05784153938293457,
6.8550000000000004,-0.062769852578639984,
6.8600000000000003,-0.070631109178066254,
6.8650000000000002,-0.075319014489650726,
6.8700000000000001,-0.080319449305534363,
6.875,-0.083997651934623718,
6.8799999999999999,-0.087747976183891296,
6.8849999999999998,-0.098349854350090027,
6.8899999999999997,-0.1091921329498291,
6.8949999999999996,-0.12919387221336365,
6.9000000000000004,-0.14318546652793884,
6.9050000000000002,-0.16294679045677185,
6.9100000000000001,-0.17518341541290283,
6.915,-0.1931176632642746,
6.9199999999999999,-0.20521005988121033,
6.9249999999999998,-0.22292792797088623,
6.9299999999999997,-0.23331344127655029,
6.9349999999999996,-0.24487695097923279,
6.9400000000000004,-0.24939656257629395,
6.9450000000000003,-0.25141596794128418,
6.9500000000000002,-0.25014182925224304,
6.9550000000000001,-0.2437470406293869,
6.96,-0.23629447817802429,
6.9649999999999999,-0.21927377581596375,
6.9699999999999998,-0.20369550585746765,
6.9749999999999996,-0.1745583713054657,
6.9800000000000004,-0.15268146991729736,
6.9850000000000003,-0.11998634040355682,
6.9900000000000002,-0.10068178176879883,
6.9950000000000001,-0.078348122537136078,
7,-0.068058773875236511,73.684211730957031
7.0049999999999999,-0.056807797402143478,
7.0099999999999998,-0.049595635384321213,
7.0149999999999997,-0.035964649170637131,
7.0199999999999996,-0.024857919663190842,
7.0250000000000004,-0.0081016626209020615,
7.0300000000000002,0.00062505406094714999,
7.0350000000000001,0.007043878547847271,
7.04,0.0068034729920327663,
7.0449999999999999,0.0024280946236103773,
7.0499999999999998,-0.00081737840082496405,
7.0549999999999997,-0.0034618377685546875,
7.0599999999999996,-0.0036782026290893555,
7.0650000000000004,-0.0039186081849038601,
7.0700000000000003,-0.0056976079940795898,
7.0750000000000002,-0.011803905479609966,
7.0800000000000001,-0.017237067222595215,
7.085,-0.022069215774536133,
7.0899999999999999,-0.025218527764081955,
7.0949999999999998,-0.02245386503636837,
7.0999999999999996,-0.019136270508170128,
7.1050000000000004,-0.016347568482160568,
7.1100000000000003,-0.017693838104605675,
7.1150000000000002,-0.024136703461408615,
7.1200000000000001,-0.029545824974775314,
7.125,-0.035868488252162933,
7.1299999999999999,-0.03812829777598381,
7.1349999999999998,-0.039763055741786957,
7.1399999999999997,-0.040917001664638519,
7.1449999999999996,-0.043321054428815842,
7.1500000000000004,-0.044306717813014984,
7.1550000000000002,-0.041926704347133636,
7.1600000000000001,-0.037118595093488693,
7.165,-0.027189850807189941,
7.1699999999999999,-0.021516283974051476,
7.1749999999999998,-0.018799703568220139,
7.1799999999999997,-0.021564364433288574,
7.1849999999999996,-0.029545824974775314,
7.1900000000000004,-0.034185647964477539,
7.1950000000000003,-0.035243432968854904,
7.2000000000000002,-0.031420987099409103,
7.2050000000000001,-0.022093256935477257,
7.21,-0.016828378662467003,
7.2149999999999999,-0.015169581398367882,
7.2199999999999998,-0.01891990564763546,
7.2249999999999996,-0.028656324371695518,
7.2300000000000004,-0.03447413444519043,
7.2350000000000003,-0.037118595093488693,
7.2400000000000002,-0.034041404724121094,
7.2450000000000001,-0.025338729843497276,
7.25,-0.020170014351606369,
7.2549999999999999,-0.01829485222697258,
7.2599999999999998,-0.021852850914001465,
7.2649999999999997,-0.031781595200300217,
7.2699999999999996,-0.038392744958400726,
7.2750000000000004,-0.043417215347290039,
7.2800000000000002,-0.042527716606855392,
7.2850000000000001,-0.037118595093488693,
7.29,-0.034041404724121094,
7.2949999999999999,-0.036084853112697601,
7.2999999999999998,-0.043849945068359375,
7.3049999999999997,-0.063659355044364929,
7.3099999999999996,-0.078684687614440918,
7.3150000000000004,-0.095801554620265961,
7.3200000000000003,-0.099744200706481934,
7.3250000000000002,-0.092219516634941101,
7.3300000000000001,-0.079766511917114258,
7.335,-0.055413447320461273,
7.3399999999999999,-0.039162039756774902,
7.3449999999999998,-0.020506581291556358,
7.3499999999999996,-0.014280080795288086,
7.3550000000000004,-0.015578269958496094,
7.3600000000000003,-0.021516283974051476,
7.3650000000000002,-0.027935108169913292,
7.3700000000000001,-0.02182881161570549,
7.375,0.015818675979971886,
7.3799999999999999,0.060053270310163498,
7.3849999999999998,0.13364136219024658,
7.3899999999999997,0.16210536658763885,
7.3949999999999996,0.12138068675994873,
7.4000000000000004,0.01646777056157589,
7.4050000000000002,-0.25403639674186707,
7.4100000000000001,-0.47595462203025818,
7.415,-0.77066761255264282,
7.4199999999999999,-0.87904238700866699,
7.4249999999999998,-0.8437989354133606,
7.4299999999999997,-0.69280028343200684,
7.4349999999999996,-0.35406908392906189,
7.4400000000000004,-0.12073159217834473,
7.4450000000000003,0.1416468620300293,
7.4500000000000002,0.23131808638572693,
7.4550000000000001,0.25043031573295593,
7.46,0.21477818489074707,
7.4649999999999999,0.14032463729381561,
7.4699999999999998,0.096041962504386902,
7.4749999999999996,0.048706136643886566,
7.4800000000000004,0.028439959511160851,
7.4850000000000003,0.0098325815051794052,
7.4900000000000002,0.0032935540657490492,
7.4950000000000001,-0.00012020270514767617,
7.5,-7.2121620178222656e-05,
7.5049999999999999,-0.00091354054166004062,
7.5099999999999998,-0.0041349730454385281,
7.5149999999999997,-0.013967554084956646,
7.5199999999999996,-0.022934675216674805,
7.5250000000000004,-0.036806069314479828,
7.5300000000000002,-0.044571161270141602,
7.5350000000000001,-0.052216053009033203,
7.54,-0.054668188095092773,
7.5449999999999999,-0.055798094719648361,
7.5499999999999998,-0.056110620498657227,
7.5549999999999997,-0.057865582406520844,
7.5599999999999996,-0.06091872975230217,
7.5650000000000004,-0.069477163255214691,
7.5700000000000003,-0.078107714653015137,
7.5750000000000002,-0.095128417015075684,
7.5800000000000001,-0.10842283815145493,
7.585,-0.12957851588726044,
7.5899999999999999,-0.14364223182201385,
7.5949999999999998,-0.16424497961997986,
7.5999999999999996,-0.17799615859985352,
7.6050000000000004,-0.1990797221660614,
7.6100000000000003,-0.2128789871931076,
7.6150000000000002,-0.23064494132995605,
7.6200000000000001,-0.23877064883708954,
7.625,-0.24360279738903046,
7.6299999999999999,-0.242160364985466,
7.6349999999999998,-0.23511648178100586,
7.6399999999999997,-0.22850534319877625,
7.6449999999999996,-0.21643698215484619,
7.6500000000000004,-0.20636400580406189,
7.6550000000000002,-0.18657863140106201,
7.6600000000000001,-0.1699906587600708,
7.665,-0.14174303412437439,
7.6699999999999999,-0.12255867570638657,
7.6749999999999998,-0.096186205744743347,
7.6799999999999997,-0.080992579460144043,
7.6849999999999996,-0.060966812074184418,
7.6900000000000004,-0.04844168946146965,
7.6950000000000003,-0.030098756775259972,
7.7000000000000002,-0.018871825188398361,
7.7050000000000001,-0.0061543784104287624,
7.71,-0.0015385946026071906,
7.7149999999999999,0.00026444596005603671,
7.7199999999999998,-7.2121620178222656e-05,
7.7249999999999996,0.00079333782196044922,
7.7300000000000004,0.0031733512878417969,
7.7350000000000003,0.0080054998397827148,
7.7400000000000002,0.010145108215510845,
7.7450000000000001,0.0095681352540850639,
7.75,0.007140040397644043,
7.7549999999999999,0.0035099189262837172,
7.7599999999999998,0.0026684999465942383,
7.7649999999999997,0.0037503242492675781,
7.7699999999999996,0.0045436620712280273,
7.7750000000000004,0.0027165811043232679,
7.7800000000000002,-0.0011779865017160773,
7.7850000000000001,-0.009351770393550396,
7.79,-0.014280080795288086,
7.7949999999999999,-0.018030405044555664,
7.7999999999999998,-0.017910202965140343,
7.8049999999999997,-0.016323527321219444,
7.8099999999999996,-0.016443729400634766,
7.8150000000000004,-0.02074698731303215,
7.8200000000000003,-0.025915702804923058,
7.8250000000000002,-0.03339231014251709,
7.8300000000000001,-0.03550788015127182,
7.835,-0.031805634498596191,
7.8399999999999999,-0.025579135864973068,
7.8449999999999998,-0.015097459778189659,
7.8499999999999996,-0.010217229835689068,
7.8550000000000004,-0.0084863109514117241,
7.8600000000000003,-0.010481676086783409,
7.8650000000000002,-0.015097459778189659,
7.8700000000000001,-0.017549594864249229,
7.875,-0.019088190048933029,
7.8799999999999999,-0.019016068428754807,
7.8849999999999998,-0.018583338707685471,
7.8899999999999997,-0.018487175926566124,
7.8949999999999996,-0.018391013145446777,
7.9000000000000004,-0.017862122505903244,
7.9050000000000002,-0.015626352280378342,
7.9100000000000001,-0.013246337883174419,
7.915,-0.0094719734042882919,
7.9199999999999999,-0.0078852977603673935,
7.9249999999999998,-0.0082939863204956055,
7.9299999999999997,-0.010409554466605186,
7.9349999999999996,-0.014592608436942101,
7.9400000000000004,-0.016732215881347656,
7.9450000000000003,-0.017597675323486328,
7.9500000000000002,-0.016876459121704102,
7.9550000000000001,-0.015554229728877544,
7.96,-0.015602311119437218,
7.9649999999999999,-0.01783808134496212,
7.9699999999999998,-0.020410418510437012,
7.9749999999999996,-0.024641554802656174,
7.9800000000000004,-0.026877325028181076,
7.9850000000000003,-0.028439959511160851,
7.9900000000000002,-0.028055310249328613,
7.9950000000000001,-0.026252269744873047,
8,-0.025795500725507736,72
8.0050000000000008,-0.030122797936201096,
8.0099999999999998,-0.038176380097866058,
8.0150000000000006,-0.057432852685451508,
8.0199999999999996,-0.071857176721096039,
8.0250000000000004,-0.087267160415649414,
8.0299999999999994,-0.088925957679748535,
8.0350000000000001,-0.076184473931789398,
8.0399999999999991,-0.059981148689985275,
8.0449999999999999,-0.032598972320556641,
8.0500000000000007,-0.017309188842773438,
8.0549999999999997,-0.0040388107299804688,
8.0600000000000005,-0.002259810920804739,
8.0649999999999995,-0.0076208515092730522,
8.0700000000000003,-0.013054013252258301,
8.0749999999999993,-0.014688770286738873,
8.0800000000000001,-0.0048081083223223686,
8.0850000000000009,0.035027068108320236,
8.0899999999999999,0.077218219637870789,
8.0950000000000006,0.14414708316326141,
8.0999999999999996,0.16818761825561523,
8.1050000000000004,0.12481848895549774,
8.1099999999999994,0.021251838654279709,
8.1150000000000002,-0.24579048156738281,
8.1199999999999992,-0.46794912219047546,
8.125,-0.77150905132293701,
8.1300000000000008,-0.89139920473098755,
8.1349999999999998,-0.87608540058135986,
8.1400000000000006,-0.73489528894424438,
8.1449999999999996,-0.39839982986450195,
8.1500000000000004,-0.15715301036834717,
8.1549999999999994,0.12638112902641296,
8.1600000000000001,0.23090939223766327,
8.1649999999999991,0.26490271091461182,
8.1699999999999999,0.23201525211334229,
8.1750000000000007,0.15352289378643036,
8.1799999999999997,0.10496100038290024,
8.1850000000000005,0.054956674575805664,
8.1899999999999995,0.036974351853132248,
8.1950000000000003,0.025915702804923058,
8.1999999999999993,0.024473270401358604,
8.2050000000000001,0.024954080581665039,
8.2100000000000009,0.024737715721130371,
8.2149999999999999,0.022069215774536133,
8.2200000000000006,0.01891990564763546,
8.2249999999999996,0.013366540893912315,
8.2300000000000004,0.0095681352540850639,
8.2349999999999994,0.0034377973061054945,
8.2400000000000002,-0.0014905135612934828,
8.2449999999999992,-0.010746121406555176,
8.25,-0.017741918563842773,
8.2550000000000008,-0.028031270951032639,
8.2599999999999998,-0.033993326127529144,
8.2650000000000006,-0.041493974626064301,
8.2699999999999996,-0.046205919235944748,
8.2750000000000004,-0.054403744637966156,
8.2799999999999994,-0.061279337853193283,
8.2850000000000001,-0.073996782302856445,
8.2899999999999991,-0.083709165453910828,
8.2949999999999999,-0.099407635629177094,
8.3000000000000007,-0.11051436513662338,
8.3049999999999997,-0.128592848777771,
8.3100000000000005,-0.14191131293773651,
8.3149999999999995,-0.1637401282787323,
8.3200000000000003,-0.17864525318145752,
8.3249999999999993,-0.19891142845153809,
8.3300000000000001,-0.20917674899101257,
8.3350000000000009,-0.21720628440380096,
8.3399999999999999,-0.21737456321716309,
8.3450000000000006,-0.21131634712219238,
8.3499999999999996,-0.20446479320526123,
8.3550000000000004,-0.19205987453460693,
8.3599999999999994,-0.18273214995861053,
8.3650000000000002,-0.16650478541851044,
8.3699999999999992,-0.15345077216625214,
8.375,-0.12969872355461121,
8.3800000000000008,-0.11137982457876205,
8.3849999999999998,-0.08200228214263916,
8.3900000000000006,-0.062553487718105316,
8.3949999999999996,-0.036012731492519379,
8.4000000000000004,-0.021131634712219238,
8.4049999999999994,-0.0039907298050820827,
8.4100000000000001,0.0039907298050820827,
8.4149999999999991,0.011803905479609966,
8.4199999999999999,0.015265743248164654,
8.4250000000000007,0.019641121849417686,
8.4299999999999997,0.022766392678022385,
8.4350000000000005,0.027670662850141525,
8.4399999999999995,0.030363202095031738,
8.4450000000000003,0.032021999359130859,
8.4499999999999993,0.031324826180934906,
8.4550000000000001,0.028920769691467285,
8.4600000000000009,0.027550458908081055,
8.4649999999999999,0.026901364326477051,
8.4700000000000006,0.026949446648359299,
8.4749999999999996,0.025867622345685959,
8.4800000000000004,0.023607810959219933,
8.4849999999999994,0.018463134765625,
8.4900000000000002,0.015169581398367882,
8.4949999999999992,0.012356838211417198,
8.5,0.011876027099788189,
8.5050000000000008,0.011275013908743858,
8.5099999999999998,0.0095921754837036133,
8.5150000000000006,0.0045436620712280273,
8.5199999999999996,0.00062505406094714999,
8.5250000000000004,-0.0030291080474853516,
8.5299999999999994,-0.0026684999465942383,
8.5350000000000001,0.0015866756439208984,
8.5399999999999991,0.0052167973481118679,
8.5449999999999999,0.0081978244706988335,
8.5500000000000007,0.0073083243332803249,
8.5549999999999997,0.0026204190216958523,
8.5600000000000005,-0.0007692973013035953,
8.5649999999999995,-0.0026444594841450453,
8.5700000000000003,-0.00072121620178222656,
8.5749999999999993,0.0058178110048174858,
8.5800000000000001,0.010649959556758404,
8.5850000000000009,0.015145540237426758,
8.5899999999999999,0.015289783477783203,
8.5950000000000006,0.011972188949584961,
8.5999999999999996,0.0088709592819213867,
8.6050000000000004,0.0056254863739013672,
8.6099999999999994,0.0052889189682900906,
8.6150000000000002,0.0072842836380004883,
8.6199999999999992,0.0092315673828125,
8.625,0.010529756546020508,
8.6300000000000008,0.0092075271531939507,
8.6349999999999998,0.0039907298050820827,
8.6400000000000006,-0.00028848648071289062,
8.6449999999999996,-0.0042792162857949734,
8.6500000000000004,-0.0036060810089111328,
8.6549999999999994,0.0028367838822305202,
8.6600000000000001,0.0092075271531939507,
8.6649999999999991,0.017188986763358116,
8.6699999999999999,0.019088190048933029,
8.6750000000000007,0.01521766185760498,
8.6799999999999997,0.0091113653033971786,
8.6850000000000005,-0.0017549594631418586,
8.6899999999999995,-0.0079333782196044922,
8.6950000000000003,-0.012861689552664757,
8.6999999999999993,-0.012837648391723633,
8.7050000000000001,-0.009039243683218956,
8.7100000000000009,-0.0057456893846392632,
8.7149999999999999,-0.0035580000840127468,
8.7200000000000006,-0.0061303377151489258,
8.7249999999999996,-0.017862122505903244,
8.7300000000000004,-0.030098756775259972,
8.7349999999999994,-0.050292812287807465,
8.7400000000000002,-0.061303377151489258,
8.7449999999999992,-0.068996354937553406,
8.75,-0.067121192812919617,
8.7550000000000008,-0.055124960839748383,
8.7599999999999998,-0.043056607246398926,
8.7650000000000006,-0.022742351517081261,
8.7699999999999996,-0.0096883382648229599,
8.7750000000000004,0.0061784191057085991,
8.7799999999999994,0.012525121681392193,
8.7850000000000001,0.01353482436388731,
8.7899999999999991,0.0092796487733721733,
8.7949999999999999,0.0025963783264160156,
8.8000000000000007,0.0054331622086465359,
8.8049999999999997,0.033632718026638031,
8.8100000000000005,0.070967674255371094,
8.8149999999999995,0.14068524539470673,
8.8200000000000003,0.17518341541290283,
8.8249999999999993,0.1583310067653656,
8.8300000000000001,0.0080776214599609375,
8.8350000000000009,-0.17145714163780212,
8.8399999999999999,-0.50901037454605103,
8.8450000000000006,-0.72188937664031982,
8.8499999999999996,-0.91082394123077393,
8.8550000000000004,-0.90402048826217651,
8.8599999999999994,-0.68950676918029785,
8.8650000000000002,-0.45333248376846313,
8.8699999999999992,-0.078203879296779633,
8.875,0.12015461921691895,
8.8800000000000008,0.27985593676567078,
8.8849999999999998,0.29706895351409912,
8.8900000000000006,0.23826579749584198,
8.8949999999999996,0.17814040184020996,
8.9000000000000004,0.10020097345113754,
8.9049999999999994,0.066664420068264008,
8.9100000000000001,0.042143069207668304,
8.9149999999999991,0.037046473473310471,
8.9199999999999999,0.036132931709289551,
8.9250000000000007,0.035772323608398438,
8.9299999999999997,0.031372904777526855,
8.9350000000000005,0.025314688682556152,
8.9399999999999995,0.013366540893912315,
8.9450000000000003,0.0056495270691812038,
8.9499999999999993,-0.002091526985168457,
8.9550000000000001,-0.0038705270271748304,
8.9600000000000009,-0.0029089055024087429,
8.9649999999999999,-0.0018030405044555664,
8.9700000000000006,-0.0028608243446797132,
8.9749999999999996,-0.0064669055864214897,
8.9800000000000004,-0.016059082001447678,
8.9849999999999994,-0.02428094670176506,
8.9900000000000002,-0.037358999252319336,
8.9949999999999992,-0.045701067894697189,
9,-0.057312648743391037,74.204948425292969
9.0050000000000008,-0.064909458160400391,
9.0099999999999998,-0.077410541474819183,
9.0150000000000006,-0.087267160415649414,
9.0199999999999996,-0.10522544384002686,
9.0250000000000004,-0.11919300258159637,
9.0299999999999994,-0.14167091250419617,
9.0350000000000001,-0.15604715049266815,
9.0399999999999991,-0.17417371273040771,
9.0449999999999999,-0.18330912292003632,
9.0500000000000007,-0.19371867179870605,
9.0549999999999997,-0.19989709556102753,
9.0600000000000005,-0.20641207695007324,
9.0649999999999995,-0.2160523384809494,
9.0700000000000003,-0.22028347849845886,
9.0749999999999993,-0.21607637405395508,
9.0800000000000001,-0.19542555510997772,
9.0850000000000009,-0.17285148799419403,
9.0899999999999999,-0.13176620006561279,
9.0950000000000006,-0.10404746234416962,
9.0999999999999996,-0.067553922533988953,
9.1050000000000004,-0.047672390937805176,
9.1099999999999994,-0.030723810195922852,
9.1150000000000002,-0.0089911622926592827,
9.1199999999999992,0.0095440950244665146,
9.125,0.019785365089774132,
9.1300000000000008,0.030988257378339767,
9.1349999999999998,0.035628080368041992,
9.1400000000000006,0.039474569261074066,
9.1449999999999996,0.040844880044460297,
9.1500000000000004,0.042311351746320724,
9.1549999999999994,0.043056607246398926,
9.1600000000000001,0.043609540909528732,
9.1649999999999991,0.04336913675069809,
9.1699999999999999,0.042503677308559418,
9.1750000000000007,0.04228731244802475,
9.1799999999999997,0.043777823448181152,
9.1850000000000005,0.046109758317470551,
9.1899999999999995,0.050220690667629242,
9.1950000000000003,0.05197564885020256,
9.1999999999999993,0.051014028489589691,
9.2050000000000001,0.047696433961391449,
9.2100000000000009,0.040243864059448242,
9.2149999999999999,0.035147272050380707,
9.2200000000000006,0.029401581734418869,
9.2249999999999996,0.027141770347952843,
9.2300000000000004,0.025410851463675499,
9.2349999999999994,0.024930041283369064,
9.2400000000000002,0.024881958961486816,
9.2449999999999992,0.025338729843497276,
9.25,0.02632439136505127,
9.2550000000000008,0.02661287784576416,
9.2599999999999998,0.025651257485151291,
9.2650000000000006,0.02416074275970459,
9.2699999999999996,0.022237500175833702,
9.2750000000000004,0.022381743416190147,
9.2799999999999994,0.025555094704031944,
9.2850000000000001,0.028680365532636642,
9.2899999999999991,0.031709473580121994,
9.2949999999999999,0.031300783157348633,
9.3000000000000007,0.027574500069022179,
9.3049999999999997,0.024978121742606163,
9.3100000000000005,0.024593472480773926,
9.3149999999999995,0.027382176369428635,
9.3200000000000003,0.033656757324934006,
9.3249999999999993,0.03658970445394516,
9.3300000000000001,0.035964649170637131,
9.3350000000000009,0.032695136964321136,
9.3399999999999999,0.027766823768615723,
9.3450000000000006,0.027117729187011719,
9.3499999999999996,0.031469069421291351,
9.3550000000000004,0.036181014031171799,
9.3599999999999994,0.040676593780517578,
9.3650000000000002,0.039642851799726486,
9.3699999999999992,0.032623015344142914,
9.375,0.027093689888715744,
9.3800000000000008,0.023391446098685265,
9.3849999999999998,0.025723379105329514,
9.3900000000000006,0.034377973526716232,
9.3949999999999996,0.040243864059448242,
9.4000000000000004,0.043513379991054535,
9.4049999999999994,0.040724676102399826,
9.4100000000000001,0.031661391258239746,
9.4149999999999991,0.025434892624616623,
9.4199999999999999,0.020097892731428146,
9.4250000000000007,0.01954495906829834,
9.4299999999999997,0.020602744072675705,
9.4350000000000005,0.020530622452497482,
9.4399999999999995,0.018054446205496788,
9.4450000000000003,0.01567443273961544,
9.4499999999999993,0.013462702743709087,
9.4550000000000001,0.01322229765355587,
9.4600000000000009,0.012236635200679302,
9.4649999999999999,0.0086786355823278427,
9.4700000000000006,-0.0032935540657490492,
9.4749999999999996,-0.014472405426204205,
9.4800000000000004,-0.029641985893249512,
9.4849999999999994,-0.034185647964477539,
9.4900000000000002,-0.027814906090497971,
9.4949999999999992,-0.015025338158011436,
9.5,0.011130770668387413,
9.5050000000000008,0.028007229790091515,
9.5099999999999998,0.044090352952480316,
9.5150000000000006,0.0461578369140625,
9.5199999999999996,0.03892163559794426,
9.5250000000000004,0.033103823661804199,
9.5299999999999994,0.037911932915449142,
9.5350000000000001,0.058178108185529709,
9.5399999999999991,0.11770248413085938,
9.5449999999999999,0.16823570430278778,
9.5500000000000007,0.22487521171569824,
9.5549999999999997,0.22110085189342499,
9.5600000000000005,0.10859112441539764,
9.5649999999999995,-0.047287743538618088,
9.5700000000000003,-0.37003201246261597,
9.5749999999999993,-0.5957486629486084,
9.5800000000000001,-0.84014475345611572,
9.5850000000000009,-0.88536500930786133,
9.5899999999999999,-0.74359798431396484,
9.5950000000000006,-0.53629636764526367,
9.5999999999999996,-0.16164860129356384,
9.6050000000000004,0.061135094612836838,
9.6099999999999994,0.27384579181671143,
9.6150000000000002,0.3238501250743866,
9.6199999999999992,0.29629966616630554,
9.625,0.24391531944274902,
9.6300000000000008,0.16455750167369843,
9.6349999999999998,0.12628495693206787,
9.6400000000000006,0.094046592712402344,
9.6449999999999996,0.084141895174980164,
9.6500000000000004,0.076448917388916016,
9.6549999999999994,0.072289906442165375,
9.6600000000000001,0.065149866044521332,
9.6649999999999991,0.059812866151332855,
9.6699999999999999,0.051735244691371918,
9.6750000000000007,0.046758852899074554,
9.6799999999999997,0.040364068001508713,
9.6850000000000005,0.036830108612775803,
9.6899999999999995,0.032190285623073578,
9.6950000000000003,0.029040973633527756,
9.6999999999999993,0.023295283317565918,
9.7050000000000001,0.018415054306387901,
9.7100000000000009,0.010072986595332623,
9.7149999999999999,0.0046879053115844727,
9.7200000000000006,-0.0018511216621845961,
9.7249999999999996,-0.0052167973481118679,
9.7300000000000004,-0.010649959556758404,
9.7349999999999994,-0.015986960381269455,
9.7400000000000002,-0.028464000672101974,
9.7449999999999992,-0.04012366384267807,
9.75,-0.06212075799703598,
9.7550000000000008,-0.079021260142326355,
9.7599999999999998,-0.10570625960826874,
9.7650000000000006,-0.12277504056692123,
9.7699999999999996,-0.14429132640361786,
9.7750000000000004,-0.15453259646892548,
9.7799999999999994,-0.16330739855766296,
9.7850000000000001,-0.16578356921672821,
9.7899999999999991,-0.16705772280693054,
9.7949999999999999,-0.16725003719329834,
9.8000000000000007,-0.16612014174461365,
9.8049999999999997,-0.16318719089031219,
9.8100000000000005,-0.15318632125854492,
9.8149999999999995,-0.1421997994184494,
9.8200000000000003,-0.12003441900014877,
9.8249999999999993,-0.10282139480113983,
9.8300000000000001,-0.075799822807312012,
9.8350000000000009,-0.057817500084638596,
9.8399999999999999,-0.031180581077933311,
9.8450000000000006,-0.013630986213684082,
9.8499999999999996,0.011803905479609966,
9.8550000000000004,0.027334094047546387,
9.8599999999999994,0.046830974519252777,
9.8650000000000002,0.056663554161787033,
9.8699999999999992,0.066808663308620453,
9.875,0.071039795875549316,
9.8800000000000008,0.074669919908046722,
9.8849999999999998,0.075583457946777344,
9.8900000000000006,0.075078606605529785,
9.8949999999999996,0.073948703706264496,
9.9000000000000004,0.072362028062343597,
9.9049999999999994,0.072025462985038757,
9.9100000000000001,0.07277071475982666,
9.9149999999999991,0.073684260249137878,
9.9199999999999999,0.074477598071098328,
9.9250000000000007,0.07426123321056366,
9.9299999999999997,0.072939001023769379,
9.9350000000000005,0.071785055100917816,
9.9399999999999995,0.069813728332519531,
9.9450000000000003,0.067986652255058289,
9.9499999999999993,0.063635312020778656,
9.9550000000000001,0.05966862291097641,
9.9600000000000009,0.053490202873945236,
9.9649999999999999,0.050461094826459885,
9.9700000000000006,0.048874419182538986,
9.9749999999999996,0.04969179630279541,
9.9800000000000004,0.052119892090559006,
9.9849999999999994,0.053321920335292816,
9.9900000000000002,0.053466163575649261,
9.9949999999999992,0.052624743431806564,
10,0.051038067787885666,60.975608825683594
10.005000000000001,0.050268769264221191,
10.01,0.049812000244855881,
10.015000000000001,0.049812000244855881,
10.02,0.050196647644042969,
10.025,0.050797663629055023,
10.029999999999999,0.052504539489746094,
10.035,0.054331623017787933,
10.039999999999999,0.057985782623291016,
10.045,0.060582160949707031,
10.050000000000001,0.063683390617370605,
10.055,0.064596936106681824,
10.06,0.063442990183830261,
10.065,0.060942769050598145,
10.07,0.055317282676696777,
10.074999999999999,0.051494836807250977,
10.08,0.048177242279052734,
10.085000000000001,0.048706136643886566,
10.09,0.053658485412597656,
10.095000000000001,0.058370433747768402,
10.1,0.063899755477905273,
10.105,0.064861379563808441,
10.109999999999999,0.061928432434797287,
10.115,0.05858679860830307,
10.119999999999999,0.055269204080104828,
10.125,0.055413447320461273,
10.130000000000001,0.057985782623291016,
10.135,0.059115689247846603,
10.140000000000001,0.056351028382778168,
10.145,0.051086150109767914,
10.15,0.040844880044460297,
10.154999999999999,0.035195350646972656,
10.16,0.031853716820478439,
10.164999999999999,0.032935541123151779,
10.17,0.03584444522857666,
10.175000000000001,0.03567616268992424,
10.18,0.028872689232230186,
10.185,0.020049810409545898,
10.19,0.0039186081849038601,
10.195,-0.0055774054490029812,
10.199999999999999,-0.012813608162105083,
10.205,-0.011178851127624512,
10.210000000000001,0.0010097026824951172,
10.215,0.013871392235159874,
10.220000000000001,0.035243432968854904,
10.225,0.047335825860500336,
10.23,0.057336688041687012,
10.234999999999999,0.057480931282043457,
10.24,0.051086150109767914,
10.244999999999999,0.04735986515879631,
10.25,0.054644148796796799,
10.255000000000001,0.074645876884460449,
10.26,0.13034781813621521,
10.265000000000001,0.17729899287223816,
10.27,0.23057281970977783,
10.275,0.2276158332824707,
10.279999999999999,0.12164513766765594,
10.285,-0.027237933129072189,
10.289999999999999,-0.33827444911003113,
10.295,-0.65349400043487549,
10.300000000000001,-0.79398691654205322,
10.305,-0.81769090890884399,
10.31,-0.69902682304382324,
10.315,-0.37962418794631958,
10.32,-0.13727149367332458,
10.324999999999999,0.16039848327636719,
10.33,0.27665853500366211,
10.335000000000001,0.32392224669456482,
10.34,0.29553037881851196,
10.345000000000001,0.21884104609489441,
10.35,0.16991853713989258,
10.355,0.11883239448070526,
10.359999999999999,0.099720165133476257,
10.365,0.085560284554958344,
10.369999999999999,0.080968543887138367,
10.375,0.075751744210720062,
10.380000000000001,0.071736976504325867,
10.385,0.064140163362026215,
10.390000000000001,0.058514676988124847,
10.395,0.050629377365112305,
10.4,0.046326123178005219,
10.404999999999999,0.041061244904994965,
10.41,0.0376715287566185,
10.414999999999999,0.031949877738952637,
10.42,0.027766823768615723,
10.425000000000001,0.023631852120161057,
10.43,0.017958283424377441,
10.435,0.01214047335088253,
10.44,0.0071160001680254936,
10.445,-0.0036782026290893555,
10.449999999999999,-0.013294419273734093,
10.455,-0.030507445335388184,
10.460000000000001,-0.043056607246398926,
10.465,-0.062529444694519043,
10.470000000000001,-0.07567962259054184,
10.475,-0.095152460038661957,
10.48,-0.1075093001127243,
10.484999999999999,-0.12453000247478485,
10.49,-0.13484339416027069,
10.494999999999999,-0.14931580424308777,
10.5,-0.15830695629119873,
10.505000000000001,-0.16977429389953613,
10.51,-0.17484685778617859,
10.515000000000001,-0.17655372619628906,
10.52,-0.17333230376243591,
10.525,-0.16270637512207031,
10.529999999999999,-0.15268146991729736,
10.535,-0.13414621353149414,
10.539999999999999,-0.11931320279836655,
10.545,-0.092748403549194336,
10.550000000000001,-0.072386071085929871,
10.555,-0.040099620819091797,
10.56,-0.019785365089774132,
10.565,0.0049042701721191406,
10.57,0.016347568482160568,
10.574999999999999,0.027550458908081055,
10.58,0.033488474786281586,
10.585000000000001,0.044042270630598068,
10.59,0.052865147590637207,
10.595000000000001,0.06639997661113739,
10.6,0.073227487504482269,
10.605,0.077530741691589355,
10.609999999999999,0.076809525489807129,
10.615,0.073708295822143555,
10.619999999999999,0.072362028062343597,
10.625,0.072506271302700043,
10.630000000000001,0.07317940890789032,
10.635,0.072818800806999207,
10.640000000000001,0.071111917495727539,
10.645,0.067409679293632507,
10.65,0.065125823020935059,
10.654999999999999,0.062769852578639984,
10.66,0.061399541795253754,
10.664999999999999,0.058105986565351486,
10.67,0.054620109498500824,
10.675000000000001,0.048177242279052734,
10.68,0.044186513870954514,
10.685,0.040099620819091797,
10.69,0.038705270737409592,
10.695,0.037455163896083832,
10.699999999999999,0.036301217973232269,
10.705,0.033488474786281586,
10.710000000000001,0.031276743859052658,
10.715,0.029137134552001953,
10.720000000000001,0.02952178381383419,
10.725,0.033199988305568695,
10.73,0.036998391151428223,
10.734999999999999,0.042383473366498947,
10.74,0.044571161270141602,
10.744999999999999,0.04507601261138916,
10.75,0.044090352952480316,
10.755000000000001,0.042167108505964279,
10.76,0.041253566741943359,
10.765000000000001,0.040604472160339355,
10.77,0.040340028703212738,
10.775,0.039739012718200684,
10.779999999999999,0.039306282997131348,
10.785,0.038873553276062012,
10.789999999999999,0.038681231439113617,
10.795,0.038488905876874924,
10.800000000000001,0.038512945175170898,
10.805,0.039474569261074066,
10.81,0.041085284203290939,
10.815,0.044595204293727875,
10.82,0.046710770577192307,
10.824999999999999,0.046951174736022949,
10.83,0.04399418830871582,
10.835000000000001,0.034786663949489594,
10.84,0.026853283867239952,
10.845000000000001,0.01601099967956543,
10.85,0.011731783859431744,
10.855,0.012044310569763184,
10.859999999999999,0.016443729400634766,
10.865,0.025555094704031944,
10.869999999999999,0.02985835075378418,
10.875,0.027935108169913292,
10.880000000000001,0.019472837448120117,
10.885,-0.0017068784218281507,
10.890000000000001,-0.017453432083129883,
10.895,-0.034786663949489594,
10.9,-0.038200419396162033,
10.904999999999999,-0.029113095253705978,
10.91,-0.015482108108699322,
10.914999999999999,0.0099527835845947266,
10.92,0.026132067665457726,
10.925000000000001,0.043417215347290039,
10.93,0.048105120658874512,
10.935,0.044619243592023849,
10.94,0.038272541016340256,
10.945,0.03413756936788559,
10.949999999999999,0.043777823448181152,
10.955,0.087555646896362305,
10.960000000000001,0.13402602076530457,
10.965,0.20350317656993866,
10.970000000000001,0.22290389239788055,
10.975,0.16148030757904053,
10.98,0.042263269424438477,
10.984999999999999,-0.24172763526439667,
10.99,-0.46403050422668457,
10.994999999999999,-0.74686747789382935,
11,-0.84259688854217529,73.170730590820312
11.005000000000001,-0.78908264636993408,
11.01,-0.62964582443237305,
11.015000000000001,-0.28509676456451416,
11.02,-0.051254432648420334,
11.025,0.20917674899101257,
11.029999999999999,0.29610735177993774,
11.035,0.30863246321678162,
11.039999999999999,0.26725870370864868,
11.045,0.18460731208324432,
11.050000000000001,0.13717532157897949,
11.055,0.090608797967433929,
11.06,0.073876582086086273,
11.065,0.06103893369436264,
11.07,0.055894255638122559,
11.074999999999999,0.048802297562360764,
11.08,0.04370570182800293,
11.085000000000001,0.036349296569824219,
11.09,0.032526850700378418,
11.095000000000001,0.029137134552001953,
11.1,0.027742784470319748,
11.105,0.024329027161002159,
11.109999999999999,0.019761323928833008,
11.115,0.0093758106231689453,
11.119999999999999,0.0016107162227854133,
11.125,-0.0079814596101641655,
11.130000000000001,-0.011996230110526085,
11.135,-0.015530189499258995,
11.140000000000001,-0.018174648284912109,
11.145,-0.025627216324210167,
11.15,-0.033632718026638031,
11.154999999999999,-0.049138866364955902,
11.16,-0.060678325593471527,
11.164999999999999,-0.078925095498561859,
11.17,-0.092123351991176605,
11.175000000000001,-0.11467337608337402,
11.18,-0.13133347034454346,
11.185,-0.15623947978019714,
11.19,-0.17035126686096191,
11.195,-0.18460731208324432,
11.199999999999999,-0.1891028881072998,
11.205,-0.19076168537139893,
11.210000000000001,-0.19054532051086426,
11.215,-0.19037704169750214,
11.220000000000001,-0.18980006873607635,
11.225,-0.18470346927642822,
11.23,-0.17628929018974304,
11.234999999999999,-0.15455663204193115,
11.24,-0.13491551578044891,
11.244999999999999,-0.10159532725811005,
11.25,-0.079429946839809418,
11.255000000000001,-0.049307148903608322,
11.26,-0.031925838440656662,
11.265000000000001,-0.0095921754837036133,
11.27,0.0029810271225869656,
11.275,0.018222730606794357,
11.279999999999999,0.025675296783447266,
11.285,0.033079784363508224,
11.289999999999999,0.036205053329467773,
11.295,0.040003459900617599,
11.300000000000001,0.042840242385864258,
11.305,0.047888755798339844,
11.31,0.051302514970302582,
11.315,0.055197082459926605,
11.32,0.056519310921430588,
11.324999999999999,0.05659143254160881,
11.33,0.055509608238935471,
11.335000000000001,0.052696865051984787,
11.34,0.050292812287807465,
11.345000000000001,0.046229958534240723,
11.35,0.043441258370876312,
11.355,0.039474569261074066,
11.359999999999999,0.037262838333845139,
11.365,0.034786663949489594,
11.369999999999999,0.033632718026638031,
11.375,0.031997960060834885,
11.380000000000001,0.030411284416913986,
11.385,0.026853283867239952,
11.390000000000001,0.023872256278991699,
11.395,0.019641121849417686,
11.4,0.017814040184020996,
11.404999999999999,0.017020702362060547,
11.41,0.017285149544477463,
11.414999999999999,0.017164945602416992,
11.42,0.016203325241804123,
11.425000000000001,0.014063715934753418,
11.43,0.013246337883174419,
11.435,0.014664730057120323,
11.44,0.017453432083129883,
11.445,0.022622149437665939,
11.449999999999999,0.025146406143903732,
11.455,0.025843581184744835,
11.460000000000001,0.024497311562299728,
11.465,0.021924972534179688,
11.470000000000001,0.021251838654279709,
11.475,0.022814473137259483,
11.48,0.025194486603140831,
11.484999999999999,0.029161175712943077,
11.49,0.031084418296813965,
11.494999999999999,0.031877756118774414,
11.5,0.030892094597220421,
11.505000000000001,0.027261972427368164,
11.51,0.023728013038635254,
11.515000000000001,0.018054446205496788,
11.52,0.015049378387629986,
11.525,0.013174216262996197,
11.529999999999999,0.013655027374625206,
11.535,0.015241703018546104,
11.539999999999999,0.01538594625890255,
11.545,0.012645324692130089,
11.550000000000001,0.0090873241424560547,
11.555,0.0034858784638345242,
11.56,0.0010818243026733398,
11.565,0.00055293244076892734,
11.57,0.0012981891632080078,
11.574999999999999,0.00086545944213867188,
11.58,-0.0024280946236103773,
11.585000000000001,-0.013390581123530865,
11.59,-0.024016499519348145,
11.595000000000001,-0.040989123284816742,
11.6,-0.049643717706203461,
11.605,-0.053153634071350098,
11.609999999999999,-0.047456026077270508,
11.615,-0.028223594650626183,
11.619999999999999,-0.011491378769278526,
11.625,0.01137117575854063,
11.630000000000001,0.020554661750793457,
11.635,0.021492242813110352,
11.640000000000001,0.015193621627986431,
11.645,0.0052408380433917046,
11.65,0.0066351890563964844,
11.654999999999999,0.033945243805646896,
11.66,0.071616768836975098,
11.664999999999999,0.14587800204753876,
11.67,0.1892952173948288,
11.675000000000001,0.19984900951385498,
11.68,0.14349798858165741,
11.685,-0.060389839112758636,
11.69,-0.26516717672348022,
11.695,-0.6061100959777832,
11.699999999999999,-0.79422736167907715,
11.705,-0.91601669788360596,
11.710000000000001,-0.85913681983947754,
11.715,-0.59038758277893066,
11.720000000000001,-0.34329891204833984,
11.725,0.0093036890029907227,
11.73,0.17621716856956482,
11.734999999999999,0.28771719336509705,
11.74,0.28326970338821411,
11.744999999999999,0.21470606327056885,
11.75,0.16027829051017761,
11.755000000000001,0.098349854350090027,
11.76,0.07454971969127655,
11.765000000000001,0.057721339166164398,
11.77,0.052696865051984787,
11.775,0.046806931495666504,
11.779999999999999,0.042143069207668304,
11.785,0.033656757324934006,
11.789999999999999,0.027550458908081055,
11.795,0.019016068428754807,
11.800000000000001,0.014376243576407433,
11.805,0.00891904067248106,
11.81,0.0056254863739013672,
11.815,-0.00026444596005603671,
11.82,-0.0051687164232134819,
11.824999999999999,-0.013294419273734093,
11.83,-0.018391013145446777,
11.835000000000001,-0.024713676422834396,
11.84,-0.028199553489685059,
11.845000000000001,-0.033873122185468674,
11.85,-0.039065878838300705,
11.855,-0.050220690667629242,
11.859999999999999,-0.059957109391689301,
11.865,-0.077194176614284515,
11.869999999999999,-0.089887581765651703,
11.875,-0.11022587865591049,
11.880000000000001,-0.12440979480743408,
11.885,-0.14628669619560242,
11.890000000000001,-0.16085526347160339,
11.895,-0.18162629008293152,
11.9,-0.19398312270641327,
11.904999999999999,-0.2090565413236618,
11.91,-0.21610042452812195,
11.914999999999999,-0.22102873027324677,
11.92,-0.21999499201774597,
11.925000000000001,-0.21114806830883026,
11.93,-0.20028173923492432,
11.935,-0.17737111449241638,
11.94,-0.15869161486625671,
11.945,-0.12828032672405243,
11.949999999999999,-0.10813435167074203,
11.955,-0.080607935786247253,
11.960000000000001,-0.064524814486503601,
11.965,-0.042984485626220703,
11.970000000000001,-0.029329460114240646,
11.975,-0.009015202522277832,
11.98,0.0039666891098022461,
11.984999999999999,0.020073851570487022,
11.99,0.026973485946655273,
11.994999999999999,0.030699770897626877,
12,0.029930472373962402,74.733100891113281
12.005000000000001,0.027766823768615723,
12.01,0.027814906090497971,
12.015000000000001,0.031637351959943771,
12.02,0.036084853112697601,
12.025,0.04291236400604248,
12.029999999999999,0.046037636697292328,
12.035,0.047311782836914062,
12.039999999999999,0.045893393456935883,
12.045,0.041085284203290939,
12.050000000000001,0.033873122185468674,
12.055,0.028247635811567307,
12.06,0.020049810409545898,
12.065,0.015986960381269455,
12.07,0.013895432464778423,
12.074999999999999,0.014568567276000977,
12.08,0.016587972640991211,
12.085000000000001,0.019232433289289474,
12.09,0.019424756988883018,
12.095000000000001,0.017164945602416992,
12.1,0.01490513514727354,
12.105,0.01245300006121397,
12.109999999999999,0.01216451358050108,
12.115,0.012885729782283306,
12.119999999999999,0.013799270614981651,
12.125,0.014640688896179199,
12.130000000000001,0.014111797325313091,
12.135,0.012837648391723633,
12.140000000000001,0.010048946365714073,
12.145,0.0083661079406738281,
12.15,0.0075246891938149929,
12.154999999999999,0.0086065139621496201,
12.16,0.011972188949584961,
12.164999999999999,0.014111797325313091,
12.17,0.015049378387629986,
12.175000000000001,0.013799270614981651,
12.18,0.010746121406555176,
12.185,0.0094960136339068413,
12.19,0.010433594696223736,
12.195,0.012501081451773643,
12.199999999999999,0.014520486816763878,
12.205,0.01490513514727354,
12.210000000000001,0.010746121406555176,
12.215,0.0064669055864214897,
12.220000000000001,0.0012020270805805922,
12.225,0.00033656758023425937,
12.23,0.0021155676804482937,
12.234999999999999,0.0082459058612585068,
12.24,0.014256040565669537,
12.244999999999999,0.01584271714091301,
12.25,0.013029973022639751,
12.255000000000001,0.0081978244706988335,
12.26,-0.00093758106231689453,
12.265000000000001,-0.0064669055864214897,
12.27,-0.01168370246887207,
12.275,-0.012621283531188965,
12.279999999999999,-0.010842284187674522,
12.285,-0.0089430809020996094,
12.289999999999999,-0.0081016626209020615,
12.295,-0.012428959831595421,
12.300000000000001,-0.026011865586042404,
12.305,-0.03921012207865715,
12.31,-0.059211850166320801,
12.315,-0.068010687828063965,
12.32,-0.068178974092006683,
12.324999999999999,-0.058875285089015961,
12.33,-0.035195350646972656,
12.335000000000001,-0.017693838104605675,
12.34,0.0030771892052143812,
12.345000000000001,0.010145108215510845,
12.35,0.0096162166446447372,
12.355,0.0041349730454385281,
12.359999999999999,-0.0025482974015176296,
12.365,0.0016828378429636359,
12.369999999999999,0.033488474786281586,
12.375,0.073996782302856445,
12.380000000000001,0.15008509159088135,
12.385,0.19023279845714569,
12.390000000000001,0.18364569544792175,
12.395,0.1067640408873558,
12.4,-0.13419429957866669,
12.404999999999999,-0.35830020904541016,
12.41,-0.70210397243499756,
12.414999999999999,-0.86942613124847412,
12.42,-0.93337398767471313,
12.425000000000001,-0.83324515819549561,
12.43,-0.51850640773773193,
12.435,-0.26269099116325378,
12.44,0.071977376937866211,
12.445,0.21588405966758728,
12.449999999999999,0.29577076435089111,
12.455,0.27903854846954346,
12.460000000000001,0.20528218150138855,
12.465,0.15169581770896912,
12.470000000000001,0.089551016688346863,
12.475,0.062817931175231934,
12.48,0.039450526237487793,
12.484999999999999,0.031156539916992188,
12.49,0.025002162903547287,
12.494999999999999,0.023127000778913498,
12.5,0.021131634712219238,
12.505000000000001,0.019352635368704796,
12.51,0.015482108108699322,
12.515000000000001,0.012308756820857525,
12.52,0.0070679187774658203,
12.525,0.0032695136032998562,
12.529999999999999,-0.0033175945281982422,
12.535,-0.0083901491016149521,
12.539999999999999,-0.016587972640991211,
12.545,-0.022045176476240158,
12.550000000000001,-0.030122797936201096,
12.555,-0.035988688468933105,
12.56,-0.046830974519252777,
12.565,-0.055918298661708832,
12.57,-0.071905255317687988,
12.574999999999999,-0.083276435732841492,
12.58,-0.099912486970424652,
12.585000000000001,-0.11058648675680161,
12.59,-0.12707829475402832,
12.595000000000001,-0.13929089903831482,
12.6,-0.15979747474193573,
12.605,-0.17405351996421814,
12.609999999999999,-0.1937667578458786,
12.615,-0.20441672205924988,
12.619999999999999,-0.21573981642723083,
12.625,-0.22025942802429199,
12.630000000000001,-0.22285580635070801,
12.635,-0.22153358161449432,
12.640000000000001,-0.2137204110622406,
12.645,-0.203935906291008,
12.65,-0.18246769905090332,
12.654999999999999,-0.1645815372467041,
12.66,-0.13493955135345459,
12.664999999999999,-0.1146974191069603,
12.67,-0.085295841097831726,
12.675000000000001,-0.066928863525390625,
12.68,-0.041950743645429611,
12.685,-0.027237933129072189,
12.69,-0.0085824728012084961,
12.695,0.0014424324035644531,
12.699999999999999,0.012981891632080078,
12.705,0.018631419166922569,
12.710000000000001,0.024713676422834396,
12.715,0.027646621689200401,
12.720000000000001,0.031180581077933311,
12.725,0.03339231014251709,
12.73,0.036806069314479828,
12.734999999999999,0.038873553276062012,
12.74,0.040844880044460297,
12.744999999999999,0.040941040962934494,
12.75,0.039113961160182953,
12.755000000000001,0.037046473473310471,
12.76,0.033849082887172699,
12.765000000000001,0.032046042382717133,
12.77,0.029593905434012413,
12.775,0.027670662850141525,
12.779999999999999,0.024088621139526367,
12.785,0.021732648834586143,
12.789999999999999,0.019617080688476562,
12.795,0.019641121849417686,
12.800000000000001,0.021107595413923264,
12.805,0.021804770454764366,
12.81,0.020025771111249924,
12.815,0.016227364540100098,
12.82,0.0078131761401891708,
12.824999999999999,0.002307891845703125,
12.83,-0.0018270810833200812,
12.835000000000001,-0.00040868920041248202,
12.84,0.0072121620178222656,
12.845000000000001,0.013727148994803429,
12.85,0.020554661750793457,
12.855,0.021155675873160362,
12.859999999999999,0.016491811722517014,
12.865,0.011996230110526085,
12.869999999999999,0.0081016626209020615,
12.875,0.009039243683218956,
12.880000000000001,0.014760891906917095,
12.885,0.019232433289289474,
12.890000000000001,0.022862553596496582,
12.895,0.022165378555655479,
12.9,0.017934244126081467,
12.904999999999999,0.015097459778189659,
12.91,0.013919472694396973,
12.914999999999999,0.015626352280378342,
12.92,0.020121932029724121,
12.925000000000001,0.022477906197309494,
12.93,0.022670229896903038,
12.935,0.020338296890258789,
12.94,0.015049378387629986,
12.945,0.012020270340144634,
12.949999999999999,0.010457634925842285,
12.955,0.011755824089050293,
12.960000000000001,0.016275446861982346,
12.965,0.019785365089774132,
12.970000000000001,0.023247202858328819,
12.975,0.022982757538557053,
12.98,0.017669796943664551,
12.984999999999999,0.011443297378718853,
12.99,0.0013462703209370375,
12.994999999999999,-0.0032695136032998562,
13,-0.0036060810089111328,85.020240783691406
13.005000000000001,0.0008895000210031867,
13.01,0.011347135528922081,
13.015000000000001,0.017429392784833908,
13.02,0.019569000229239464,
13.025,0.014592608436942101,
13.029999999999999,-0.0017068784218281507,
13.035,-0.016107162460684776,
13.039999999999999,-0.037190716713666916,
13.045,-0.047648351639509201,
13.050000000000001,-0.054235458374023438,
13.055,-0.051903527230024338,
13.06,-0.039498608559370041,
13.065,-0.026709040626883507,
13.07,-0.0043272972106933594,
13.074999999999999,0.010097026824951172,
13.08,0.025747418403625488,
13.085000000000001,0.02969006821513176,
13.09,0.026083987206220627,
13.095000000000001,0.021756689995527267,
13.1,0.026805203408002853,
13.105,0.046758852899074554,
13.109999999999999,0.10652363300323486,
13.115,0.15729725360870361,
13.119999999999999,0.21117210388183594,
13.125,0.20124337077140808,
13.130000000000001,0.072049498558044434,
13.135,-0.097436308860778809,
13.140000000000001,-0.43566268682479858,
13.145,-0.66342276334762573,
13.15,-0.89522165060043335,
13.154999999999999,-0.92421454191207886,
13.16,-0.7565077543258667,
13.164999999999999,-0.53704166412353516,
13.17,-0.15741746127605438,
13.175000000000001,0.060678325593471527,
13.18,0.26086390018463135,
13.185,0.30319929122924805,
13.19,0.26978296041488647,
13.195,0.21759092807769775,
13.199999999999999,0.14205555617809296,
13.205,0.10645151138305664,
13.210000000000001,0.075391136109828949,
13.215,0.063851676881313324,
13.220000000000001,0.051591001451015472,
13.225,0.044763486832380295,
13.23,0.036709904670715332,
13.234999999999999,0.033272109925746918,
13.24,0.030291080474853516,
13.244999999999999,0.028512081131339073,
13.25,0.024016499519348145,
13.255000000000001,0.019232433289289474,
13.26,0.010193189606070518,
13.265000000000001,0.0040868921205401421,
13.27,-0.0031252703629434109,
13.275,-0.0061543784104287624,
13.279999999999999,-0.0088469190523028374,
13.285,-0.010649959556758404,
13.289999999999999,-0.016035040840506554,
13.295,-0.022670229896903038,
13.300000000000001,-0.0376715287566185,
13.305,-0.050172608345746994,
13.31,-0.070102214813232422,
13.315,-0.082915827631950378,
13.32,-0.10077794641256332,
13.324999999999999,-0.11234144866466522,
13.33,-0.13066034018993378,
13.335000000000001,-0.14390668272972107,
13.34,-0.16414880752563477,
13.345000000000001,-0.17640948295593262,
13.35,-0.19054532051086426,
13.355,-0.19674777984619141,
13.359999999999999,-0.20215690135955811,
13.365,-0.20386378467082977,
13.369999999999999,-0.20343105494976044,
13.375,-0.19989709556102753,
13.380000000000001,-0.18693923950195312,
13.385,-0.17244279384613037,
13.390000000000001,-0.14354607462882996,
13.395,-0.12195765972137451,
13.4,-0.090536676347255707,
13.404999999999999,-0.071736976504325867,
13.41,-0.046951174736022949,
13.414999999999999,-0.031949877738952637,
13.42,-0.010698040947318077,
13.425000000000001,0.0026684999465942383,
13.43,0.020410418510437012,
13.435,0.029882391914725304,
13.44,0.039739012718200684,
13.445,0.043681662529706955,
13.449999999999999,0.04723966121673584,
13.455,0.049162905663251877,
13.460000000000001,0.052648782730102539,
13.465,0.055317282676696777,
13.470000000000001,0.05858679860830307,
13.475,0.059452258050441742,
13.48,0.058514676988124847,
13.484999999999999,0.056952040642499924,
13.49,0.054475866258144379,
13.494999999999999,0.052817068994045258,
13.5,0.049547553062438965,
13.505000000000001,0.046398244798183441,
13.51,0.040676593780517578,
13.515000000000001,0.037286877632141113,
13.52,0.034906864166259766,
13.525,0.035604041069746017,
13.529999999999999,0.038777392357587814,
13.535,0.040748715400695801,
13.539999999999999,0.041037201881408691,
13.545,0.038969717919826508,
13.550000000000001,0.033632718026638031,
13.555,0.029954513534903526,
13.56,0.026540756225585938,
13.565,0.026276310905814171,
13.57,0.028199553489685059,
13.574999999999999,0.02985835075378418,
13.58,0.031012296676635742,
13.585000000000001,0.030459364876151085,
13.59,0.028584202751517296,
13.595000000000001,0.027622580528259277,
13.6,0.027911067008972168,
13.605,0.029353499412536621,
13.609999999999999,0.032430689781904221,
13.615,0.034281812608242035,
13.619999999999999,0.035652123391628265,
13.625,0.03555595874786377,
13.630000000000001,0.034738581627607346,
13.635,0.034402012825012207,
13.640000000000001,0.035291515290737152,
13.645,0.036974351853132248,
13.65,0.040195785462856293,
13.654999999999999,0.041854582726955414,
13.66,0.042167108505964279,
13.664999999999999,0.040868919342756271,
13.67,0.037695568054914474,
13.675000000000001,0.035604041069746017,
13.68,0.033272109925746918,
13.685,0.032238364219665527,
13.69,0.030795931816101074,
13.695,0.029641985893249512,
13.699999999999999,0.027670662850141525,
13.705,0.026396512985229492,
13.710000000000001,0.024713676422834396,
13.715,0.023655891418457031,
13.720000000000001,0.022045176476240158,
13.725,0.021131634712219238,
13.73,0.020386379212141037,
13.734999999999999,0.020362338051199913,
13.74,0.02029021643102169,
13.744999999999999,0.019352635368704796,
13.75,0.015049378387629986,
13.755000000000001,0.0095921754837036133,
13.76,-0.0024521350860595703,
13.765000000000001,-0.012116432189941406,
13.77,-0.025867622345685959,
13.775,-0.032118164002895355,
13.779999999999999,-0.033175945281982422,
13.785,-0.027117729187011719,
13.789999999999999,-0.009015202522277832,
13.795,0.0063467025756835938,
13.800000000000001,0.027574500069022179,
13.805,0.036733947694301605,
13.81,0.039594769477844238,
13.815,0.035267472267150879,
13.82,0.027358135208487511,
13.824999999999999,0.028632283210754395,
13.83,0.053610406816005707,
13.835000000000001,0.089214444160461426,
13.84,0.16145627200603485,
13.845000000000001,0.2046811580657959,
13.85,0.21566769480705261,
13.855,0.1589801013469696,
13.859999999999999,-0.046686731278896332,
13.865,-0.25201699137687683,
13.869999999999999,-0.58892112970352173,
13.875,-0.76997041702270508,
13.880000000000001,-0.87728738784790039,
13.885,-0.74023228883743286,
13.890000000000001,-0.53800326585769653,
13.895,-0.17114460468292236,
13.9,0.048417650163173676,
13.904999999999999,0.26132068037986755,
13.91,0.31445026397705078,
13.914999999999999,0.29307824373245239,
13.92,0.24403552711009979,
13.925000000000001,0.16684135794639587,
13.93,0.12816011905670166,
13.935,0.093661949038505554,
13.94,0.08166571706533432,
13.945,0.07031857967376709,
13.949999999999999,0.063442990183830261,
13.955,0.052456460893154144,
13.960000000000001,0.045580863952636719,
13.965,0.038536988198757172,
13.970000000000001,0.036661826074123383,
13.975,0.036445461213588715,
13.98,0.035772323608398438,
13.984999999999999,0.030579566955566406,
13.99,0.023872256278991699,
13.994999999999999,0.011467337608337402,
14,0.0041109323501586914,63.268890380859375
14.005000000000001,-0.0025482974015176296,
14.01,-0.004351337905973196,
14.015000000000001,-0.006707310676574707,
14.02,-0.010722081176936626,
14.025,-0.022694271057844162,
14.029999999999999,-0.034089487046003342,
14.035,-0.053009390830993652,
14.039999999999999,-0.06502966582775116,
14.045,-0.081281065940856934,
14.050000000000001,-0.091955065727233887,
14.055,-0.11044224351644516,
14.06,-0.12515506148338318,
14.065,-0.14905135333538055,
14.07,-0.16390840709209442,
14.074999999999999,-0.1807127445936203,
14.08,-0.18720369040966034,
14.085000000000001,-0.19066552817821503,
14.09,-0.19008855521678925,
14.095000000000001,-0.18653056025505066,
14.1,-0.18234750628471375,
14.105,-0.17184178531169891,
14.109999999999999,-0.16104757785797119,
14.115,-0.13861775398254395,
14.119999999999999,-0.12008249759674072,
14.125,-0.088805757462978363,
14.130000000000001,-0.067000985145568848,
14.135,-0.035195350646972656,
14.140000000000001,-0.015890797600150108,
14.145,0.0085343923419713974,
14.15,0.021179717034101486,
14.154999999999999,0.03476262092590332,
14.16,0.040844880044460297,
14.164999999999999,0.047215621918439865,
14.17,0.050557255744934082,
14.175000000000001,0.05505283921957016,
14.18,0.057817500084638596,
14.185,0.061495702713727951,
14.19,0.063659355044364929,
14.195,0.066592298448085785,
14.199999999999999,0.068395338952541351,
14.205,0.070583030581474304,
14.210000000000001,0.071280203759670258,
14.215,0.070486865937709808,
14.220000000000001,0.068635746836662292,
14.225,0.064596936106681824,
14.23,0.061639945954084396,
14.234999999999999,0.057096283882856369,
14.24,0.053706567734479904,
14.244999999999999,0.047383904457092285,
14.25,0.042335391044616699,
14.255000000000001,0.034858785569667816,
14.26,0.031204622238874435,
14.265000000000001,0.029473703354597092,
14.27,0.030964216217398643,
14.275,0.03555595874786377,
14.279999999999999,0.038657188415527344,
14.285,0.041301649063825607,
14.289999999999999,0.041301649063825607,
14.295,0.039162039756774902,
14.300000000000001,0.03692626953125,
14.305,0.03334423154592514,
14.31,0.031204622238874435,
14.315,0.02877652645111084,
14.32,0.027862986549735069,
14.324999999999999,0.027935108169913292,
14.33,0.029040973633527756,
14.335000000000001,0.032070081681013107,
14.34,0.034714542329311371,
14.345000000000001,0.038849513977766037,
14.35,0.04120548814535141,
14.355,0.043176811188459396,
14.359999999999999,0.043248932808637619,
14.365,0.042070947587490082,
14.369999999999999,0.041277609765529633,
14.375,0.041638217866420746,
14.380000000000001,0.043104689568281174,
14.385,0.045797228813171387,
14.390000000000001,0.046470366418361664,
14.395,0.04353741928935051,
14.4,0.03875335305929184,
14.404999999999999,0.029593905434012413,
14.41,0.024401148781180382,
14.414999999999999,0.021251838654279709,
14.42,0.022670229896903038,
14.425000000000001,0.027670662850141525,
14.43,0.030291080474853516,
14.435,0.02906501293182373,
14.44,0.023920338600873947,
14.445,0.011347135528922081,
14.449999999999999,0.0018992027034983039,
14.455,-0.010097026824951172,
14.460000000000001,-0.015337864868342876,
14.465,-0.018126567825675011,
14.470000000000001,-0.016587972640991211,
14.475,-0.0096402568742632866,
14.48,-0.0023800134658813477,
14.484999999999999,0.011106729507446289,
14.49,0.020506581291556358,
14.494999999999999,0.032286446541547775,
14.5,0.036902230232954025,
14.505000000000001,0.037719607353210449,
14.51,0.035604041069746017,
14.515000000000001,0.035940609872341156,
14.52,0.045220255851745605,
14.525,0.082819662988185883,
14.529999999999999,0.1237366646528244,
14.535,0.19064149260520935,
14.539999999999999,0.21672546863555908,
14.545,0.18032810091972351,
14.550000000000001,0.083925530314445496,
14.555,-0.17075996100902557,
14.56,-0.38597089052200317,
14.565,-0.6858285665512085,
14.57,-0.80951714515686035,
14.574999999999999,-0.80860358476638794,
14.58,-0.68001073598861694,
14.585000000000001,-0.36005517840385437,
14.59,-0.1252271831035614,
14.595000000000001,0.15703281760215759,
14.6,0.26495081186294556,
14.605,0.3068774938583374,
14.609999999999999,0.27963957190513611,
14.615,0.20862381160259247,
14.619999999999999,0.16376416385173798,
14.625,0.1160917729139328,
14.630000000000001,0.096763178706169128,
14.635,0.079285703599452972,
14.640000000000001,0.071568690240383148,
14.645,0.062337122857570648,
14.65,0.056663554161787033,
14.654999999999999,0.047744512557983398,
14.66,0.041590135544538498,
14.664999999999999,0.033488474786281586,
14.67,0.02997855469584465,
14.675000000000001,0.028199553489685059,
14.68,0.028343796730041504,
14.685,0.027286013588309288,
14.69,0.024064581841230392,
14.695,0.015001296997070312,
14.699999999999999,0.0072362027131021023,
14.705,-0.0042551755905151367,
14.710000000000001,-0.010914405807852745,
14.715,-0.020170014351606369,
14.720000000000001,-0.027117729187011719,
14.725,-0.040267907083034515,
14.73,-0.050677459686994553,
14.734999999999999,-0.067241393029689789,
14.74,-0.078179836273193359,
14.744999999999999,-0.094791851937770844,
14.75,-0.10693232715129852,
14.755000000000001,-0.12791971862316132,
14.76,-0.1432335376739502,
14.765000000000001,-0.16503831744194031,
14.77,-0.17645756900310516,
14.775,-0.18643438816070557,
14.779999999999999,-0.1884537935256958,
14.785,-0.18638631701469421,
14.789999999999999,-0.18246769905090332,
14.795,-0.17251491546630859,
14.800000000000001,-0.16220152378082275,
14.805,-0.13998806476593018,
14.81,-0.12118836492300034,
14.815,-0.09015202522277832,
14.82,-0.069765649735927582,
14.824999999999999,-0.041710339486598969,
14.83,-0.024641554802656174,
14.835000000000001,-0.00033656758023425937,
14.84,0.015121500007808208,
14.845000000000001,0.035748284310102463,
14.85,0.046398244798183441,
14.855,0.0561346635222435,
14.859999999999999,0.058875285089015961,
14.865,0.060125391930341721,
14.869999999999999,0.061062972992658615,
14.875,0.064813300967216492,
14.880000000000001,0.068731904029846191,
14.885,0.07488628476858139,
14.890000000000001,0.077771149575710297,
14.895,0.078973174095153809,
14.9,0.077915392816066742,
14.904999999999999,0.075150728225708008,
14.91,0.073636174201965332,
14.914999999999999,0.07277071475982666,
14.92,0.072987079620361328,
14.925000000000001,0.07351597398519516,
14.93,0.073347687721252441,
14.935,0.071544647216796875,
14.94,0.06923675537109375,
14.945,0.064524814486503601,
14.949999999999999,0.061111055314540863,
14.955,0.056543350219726562,
14.960000000000001,0.05413929745554924,
14.965,0.051086150109767914,
14.970000000000001,0.048826336860656738,
14.975,0.044138431549072266,
14.98,0.040243864059448242,
14.984999999999999,0.035099189728498459,
14.99,0.033704839646816254,
14.994999999999999,0.036397378891706467,
15,0.040965080261230469,84.1683349609375
15.005000000000001,0.048970580101013184,
15.01,0.052865147590637207,
15.015000000000001,0.05430757999420166,
15.02,0.052624743431806564,
15.025,0.048898458480834961,
15.029999999999999,0.04752814769744873,
15.035,0.048682093620300293,
15.039999999999999,0.050965946167707443,
15.045,0.05397101491689682,
15.050000000000001,0.054331623017787933,
15.055,0.051879487931728363,
15.06,0.049331188201904297,
15.065,0.047023296356201172,
15.07,0.047792594879865646,
15.074999999999999,0.05214393138885498,
15.08,0.055822134017944336,
15.085000000000001,0.059692662209272385,
15.09,0.060173474252223969,
15.095000000000001,0.057913661003112793,
15.1,0.055245161056518555,
15.105,0.051062107086181641,
15.109999999999999,0.048585932701826096,
15.115,0.045460663735866547,
15.119999999999999,0.043729744851589203,
15.125,0.041902661323547363,
15.130000000000001,0.041421853005886078,
15.135,0.041734378784894943,
15.140000000000001,0.041998825967311859,
15.145,0.040580432862043381,
15.15,0.037046473473310471,
15.154999999999999,0.026348432525992393,
15.16,0.01584271714091301,
15.164999999999999,-0.0016107162227854133,
15.17,-0.010914405807852745,
15.175000000000001,-0.01521766185760498,
15.18,-0.0095440950244665146,
15.185,0.010842284187674522,
15.19,0.029089054092764854,
15.195,0.055509608238935471,
15.199999999999999,0.068130895495414734,
15.205,0.075126692652702332,
15.210000000000001,0.072073541581630707,
15.215,0.062024593353271484,
15.220000000000001,0.058202147483825684,
15.225,0.070366665720939636,
15.23,0.09625832736492157,
15.234999999999999,0.15984556078910828,
15.24,0.20686885714530945,
15.244999999999999,0.24535775184631348,
15.25,0.22141337394714355,
15.255000000000001,0.074092946946620941,
15.26,-0.10017693042755127,
15.265000000000001,-0.42849859595298767,
15.27,-0.63798785209655762,
15.275,-0.83110553026199341,
15.279999999999999,-0.83355766534805298,
15.285,-0.63767534494400024,
15.289999999999999,-0.4123433530330658,
15.295,-0.044835608452558517,
15.300000000000001,0.15506148338317871,
15.305,0.32363376021385193,
15.31,0.3481791615486145,
15.315,0.29879987239837646,
15.32,0.24329027533531189,
15.324999999999999,0.17037531733512878,
15.33,0.13917069137096405,
15.335000000000001,0.11580328643321991,
15.34,0.10921617597341537,
15.345000000000001,0.10318200290203094,
15.35,0.099022984504699707,
15.355,0.092075273394584656,
15.359999999999999,0.087531611323356628,
15.365,0.081617638468742371,
15.369999999999999,0.078276000916957855,
15.375,0.073227487504482269,
15.380000000000001,0.06923675537109375,
15.385,0.061904393136501312,
15.390000000000001,0.056543350219726562,
15.395,0.049307148903608322,
15.4,0.045725107192993164,
15.404999999999999,0.042239230126142502,
15.41,0.040243864059448242,
15.414999999999999,0.035531919449567795,
15.42,0.030243000015616417,
15.425000000000001,0.019040107727050781,
15.43,0.01028935145586729,
15.435,-0.0031733512878417969,
15.44,-0.01216451358050108,
15.445,-0.027454297989606857,
15.449999999999999,-0.040340028703212738,
15.455,-0.065221987664699554,
15.460000000000001,-0.084670782089233398,
15.465,-0.11356751620769501,
15.470000000000001,-0.12912175059318542,
15.475,-0.14253637194633484,
15.48,-0.14460384845733643,
15.484999999999999,-0.14087757468223572,
15.49,-0.13462702929973602,
15.494999999999999,-0.13090074062347412,
15.5,-0.12712638080120087,
15.505000000000001,-0.11789481341838837,
15.51,-0.099455714225769043,
15.515000000000001,-0.081112787127494812,
15.52,-0.047480069100856781,
15.525,-0.024208825081586838,
15.529999999999999,0.006707310676574707,
15.535,0.02307891845703125,
15.539999999999999,0.042119026184082031,
15.545,0.053033433854579926,
15.550000000000001,0.069957971572875977,
15.555,0.082074403762817383,
15.56,0.099527835845947266,
15.565,0.10861515998840332,
15.57,0.11592348664999008,
15.574999999999999,0.11659662425518036,
15.58,0.1138560026884079,
15.585000000000001,0.11154811084270477,
15.59,0.10986527055501938,
15.595000000000001,0.11020183563232422,
15.6,0.11171638965606689,
15.605,0.11260589212179184,
15.609999999999999,0.11306266486644745,
15.615,0.11287033557891846,
15.619999999999999,0.11159618943929672,
15.625,0.10996143519878387,
15.630000000000001,0.1075093001127243,
15.635,0.10282139480113983,
15.640000000000001,0.09871046245098114,
15.645,0.097604595124721527,
15.65,0.099167227745056152,
15.654999999999999,0.10161936283111572,
15.66,0.10455231368541718,
15.664999999999999,0.10443210601806641,
15.67,0.10022501647472382,
15.675000000000001,0.095609232783317566,
15.68,0.090873241424560547,
15.685,0.085896849632263184,
15.69,0.08486311137676239,
15.695,0.085896849632263184,
15.699999999999999,0.088084541261196136,
15.705,0.088901922106742859,
15.710000000000001,0.088685557246208191,
15.715,0.087964341044425964,
15.720000000000001,0.087267160415649414,
15.725,0.087651811540126801,
15.73,0.089647173881530762,
15.734999999999999,0.091378092765808105,
15.74,0.093421541154384613,
15.744999999999999,0.094070635735988617,
15.75,0.094455286860466003,
15.755000000000001,0.094839930534362793,
15.76,0.096210241317749023,
15.765000000000001,0.09734015166759491,
15.77,0.098349854350090027,
15.775,0.098181568086147308,
15.779999999999999,0.096715092658996582,
15.785,0.095416903495788574,
15.789999999999999,0.093517705798149109,
15.795,0.092195473611354828,
15.800000000000001,0.089887581765651703,
15.805,0.088493227958679199,
15.81,0.088252827525138855,
15.815,0.090127989649772644,
15.82,0.095032259821891785,
15.824999999999999,0.097556516528129578,
15.83,0.095921754837036133,
15.835000000000001,0.090224146842956543,
15.84,0.077554784715175629,
15.845000000000001,0.070078179240226746,
15.85,0.066303811967372894,
15.855,0.069765649735927582,
15.859999999999999,0.079934798181056976,
15.865,0.085656449198722839,
15.869999999999999,0.086017057299613953,
15.875,0.079429946839809418,
15.880000000000001,0.061952471733093262,
15.885,0.048754215240478516,
15.890000000000001,0.032839380204677582,
15.895,0.027286013588309288,
15.9,0.027862986549735069,
15.904999999999999,0.033440392464399338,
15.91,0.047287743538618088,
15.914999999999999,0.05858679860830307,
15.92,0.075944066047668457,
15.925000000000001,0.086161300539970398,
15.93,0.096378527581691742,
15.935,0.098373889923095703,
15.94,0.094936095178127289,
15.945,0.092075273394584656,
15.949999999999999,0.099359557032585144,
15.955,0.1200103759765625,
15.960000000000001,0.17991940677165985,
15.965,0.23124596476554871,
15.970000000000001,0.28819799423217773,
15.975,0.28168302774429321,
15.98,0.15700876712799072,
15.984999999999999,-0.011803905479609966,
15.99,-0.35479030013084412,
15.994999999999999,-0.58930575847625732,
16,-0.83379805088043213,63.157894134521484
16.004999999999999,-0.87074840068817139,
16.010000000000002,-0.71116727590560913,
16.015000000000001,-0.49379271268844604,
16.02,-0.11277417838573456,
16.024999999999999,0.10878344625234604,
16.030000000000001,0.31702262163162231,
16.035,0.36604127287864685,
16.039999999999999,0.34284216165542603,
16.045000000000002,0.29608330130577087,
16.050000000000001,0.22432228922843933,
16.055,0.18794894218444824,
16.059999999999999,0.15265743434429169,
16.065000000000001,0.13832926750183105,
16.07,0.12501081824302673,
16.074999999999999,0.11996229737997055,
16.079999999999998,0.11638025939464569,
16.085000000000001,0.11537055671215057,
16.09,0.11337518692016602,
16.094999999999999,0.11063456535339355,
16.100000000000001,0.10411958396434784,
16.105,0.098686419427394867,
16.109999999999999,0.090368390083312988,
16.114999999999998,0.08524775505065918,
16.120000000000001,0.078420244157314301,
16.125,0.07426123321056366,
16.129999999999999,0.068323217332363129,
16.135000000000002,0.064500771462917328,
16.140000000000001,0.058682959526777267,
16.145,0.054331623017787933,
16.149999999999999,0.04598955437541008,
16.155000000000001,0.038488905876874924,
16.16,0.023487608879804611,
