Data Set 1:Time(s),Data Set 1:EKG(mV),Data Set 1:Heart Rate(bpm)
0,-0.061447620391845703,71.428565979003906
0.0025000000000000001,-0.065246030688285828,
0.0050000000000000001,-0.068828068673610687,
0.0074999999999999997,-0.071977376937866211,
0.01,-0.0745977982878685,
0.012500000000000001,-0.07671336829662323,
0.014999999999999999,-0.082483097910881042,
0.017500000000000002,-0.085343919694423676,
0.02,-0.08907020092010498,
0.022499999999999999,-0.093782149255275726,
0.025000000000000001,-0.10488887876272202,
0.0275,-0.110129714012146,
0.029999999999999999,-0.11416852474212646,
0.032500000000000001,-0.11616389453411102,
0.035000000000000003,-0.11145194619894028,
0.037499999999999999,-0.10421574115753174,
0.040000000000000001,-0.093998514115810394,
0.042500000000000003,-0.081449352204799652,
0.044999999999999998,-0.053754650056362152,
0.047500000000000001,-0.041013162583112717,
0.050000000000000003,-0.03060360811650753,
0.052499999999999998,-0.023343365639448166,
0.055,-0.019593041390180588,
0.057500000000000002,-0.022646188735961914,
0.059999999999999998,-0.027983188629150391,
0.0625,-0.034522216767072678,
0.065000000000000002,-0.046518445014953613,
0.067500000000000004,-0.050196647644042969,
0.070000000000000007,-0.051783323287963867,
0.072499999999999995,-0.051446758210659027,
0.074999999999999997,-0.04798492044210434,
0.077499999999999999,-0.046975217759609222,
0.080000000000000002,-0.047912798821926117,
0.082500000000000004,-0.051542919129133224,
0.085000000000000006,-0.067577958106994629,
0.087499999999999994,-0.07887701690196991,
0.089999999999999997,-0.090753041207790375,
0.092499999999999999,-0.10171552747488022,
0.095000000000000001,-0.11529843509197235,
0.097500000000000003,-0.11616389453411102,
0.10000000000000001,-0.11289437860250473,
0.10249999999999999,-0.1063072681427002,
0.105,-0.088709592819213867,
0.1075,-0.081016622483730316,
0.11,-0.07596810907125473,
0.1125,-0.074357390403747559,
0.115,-0.080872379243373871,
0.11749999999999999,-0.086954638361930847,
0.12,-0.092820525169372559,
0.1225,-0.096715092658996582,
0.125,-0.093565784394741058,
0.1275,-0.085656449198722839,
0.13,-0.074237190186977386,
0.13250000000000001,-0.06075044721364975,
0.13500000000000001,-0.035003028810024261,
0.13750000000000001,-0.026300352066755295,
0.14000000000000001,-0.022021135315299034,
0.14249999999999999,-0.022501945495605469,
0.14499999999999999,-0.035339593887329102,
0.14749999999999999,-0.045148134231567383,
0.14999999999999999,-0.055028796195983887,
0.1525,-0.063491068780422211,
0.155,-0.072530314326286316,
0.1575,-0.07277071475982666,
0.16,-0.070895552635192871,
0.16250000000000001,-0.067986652255058289,
0.16500000000000001,-0.064043998718261719,
0.16750000000000001,-0.06502966582775116,
0.17000000000000001,-0.068731904029846191,
0.17249999999999999,-0.075054571032524109,
0.17499999999999999,-0.093205176293849945,
0.17749999999999999,-0.1030377596616745,
0.17999999999999999,-0.11176447570323944,
0.1825,-0.11835157871246338,
0.185,-0.12174129486083984,
0.1875,-0.11782269179821014,
0.19,-0.11027395725250244,
0.1925,-0.099672079086303711,
0.19500000000000001,-0.072914958000183105,
0.19750000000000001,-0.058971446007490158,
0.20000000000000001,-0.046181879937648773,
0.20250000000000001,-0.035604041069746017,
0.20499999999999999,-0.024088621139526367,
0.20749999999999999,-0.023896297439932823,
0.20999999999999999,-0.027382176369428635,
0.21249999999999999,-0.034065447747707367,
0.215,-0.054187379777431488,
0.2175,-0.065823003649711609,
0.22,-0.077266298234462738,
0.2225,-0.087772011756896973,
0.22500000000000001,-0.1038791760802269,
0.22750000000000001,-0.10907193273305893,
0.23000000000000001,-0.11241357028484344,
0.23250000000000001,-0.11416852474212646,
0.23499999999999999,-0.11428873240947723,
0.23749999999999999,-0.11332710832357407,
0.23999999999999999,-0.11198084056377411,
0.24249999999999999,-0.11041820049285889,
0.245,-0.10678808391094208,
0.2475,-0.10484080016613007,
0.25,-0.10296563804149628,
0.2525,-0.10135491937398911,
0.255,-0.10044138133525848,
0.25750000000000001,-0.10202805697917938,
0.26000000000000001,-0.10548989474773407,
0.26250000000000001,-0.11109133809804916,
0.26500000000000001,-0.1284966915845871,
0.26750000000000002,-0.13953129947185516,
0.27000000000000002,-0.15109479427337646,
0.27250000000000002,-0.16220152378082275,
0.27500000000000002,-0.17862121760845184,
0.27750000000000002,-0.18201093375682831,
0.28000000000000003,-0.18133780360221863,
0.28249999999999997,-0.17640948295593262,
0.28499999999999998,-0.1552538126707077,
0.28749999999999998,-0.14066120982170105,
0.28999999999999998,-0.12489061057567596,
0.29249999999999998,-0.1091921329498291,
0.29499999999999998,-0.082194611430168152,
0.29749999999999999,-0.072362028062343597,
0.29999999999999999,-0.065366230905056,
0.30249999999999999,-0.061014890670776367,
0.30499999999999999,-0.058851242065429688,
0.3075,-0.058514676988124847,
0.31,-0.059019528329372406,
0.3125,-0.059356093406677246,
0.315,-0.058875285089015961,
0.3175,-0.058370433747768402,
0.32000000000000001,-0.058178108185529709,
0.32250000000000001,-0.058682959526777267,
0.32500000000000001,-0.06286601722240448,
0.32750000000000001,-0.066520176827907562,
0.33000000000000002,-0.070631109178066254,
0.33250000000000002,-0.074405476450920105,
0.33500000000000002,-0.076593160629272461,
0.33750000000000002,-0.072650514543056488,
0.34000000000000002,-0.063923798501491547,
0.34250000000000003,-0.049812000244855881,
0.34499999999999997,-0.0052648782730102539,
0.34749999999999998,0.023655891418457031,
0.34999999999999998,0.054884552955627441,
0.35249999999999998,0.085968971252441406,
0.35499999999999998,0.13570885360240936,
0.35749999999999998,0.14748871326446533,
0.35999999999999999,0.1459260880947113,
0.36249999999999999,0.12782356142997742,
0.36499999999999999,0.032190285623073578,
0.36749999999999999,-0.047768555581569672,
0.37,-0.14861862361431122,
0.3725,-0.26805204153060913,
0.375,-0.54487884044647217,
0.3775,-0.68945866823196411,
0.38,-0.82754755020141602,
0.38250000000000001,-0.9504668116569519,
0.38500000000000001,-1.1178129911422729,
0.38750000000000001,-1.1490898132324219,
0.39000000000000001,-1.1402668952941895,
0.39250000000000002,-1.0910799503326416,
0.39500000000000002,-1.0043176412582397,
0.39750000000000002,-0.74321329593658447,
0.40000000000000002,-0.58678150177001953,
0.40250000000000002,-0.42681574821472168,
0.40500000000000003,-0.13522803783416748,
0.40749999999999997,-0.018992027267813683,
0.40999999999999998,0.071328282356262207,
0.41249999999999998,0.13441066443920135,
0.41499999999999998,0.18614590167999268,
0.41749999999999998,0.18302063643932343,
0.41999999999999998,0.16768276691436768,
0.42249999999999999,0.14551739394664764,
0.42499999999999999,0.098662376403808594,
0.42749999999999999,0.079862676560878754,
0.42999999999999999,0.065967246890068054,
0.4325,0.056807797402143478,
0.435,0.051542919129133224,
0.4375,0.047095417976379395,
0.44,0.045316420495510101,
0.4425,0.04257579892873764,
0.44500000000000001,0.033175945281982422,
0.44750000000000001,0.026877325028181076,
0.45000000000000001,0.020170014351606369,
0.45250000000000001,0.013606945984065533,
0.45500000000000002,0.0026444594841450453,
0.45750000000000002,-0.0013222297420725226,
0.46000000000000002,-0.0043272972106933594,
0.46250000000000002,-0.0065390272065997124,
0.46500000000000002,-0.0081497430801391602,
0.46750000000000003,-0.010481676086783409,
0.46999999999999997,-0.011443297378718853,
0.47249999999999998,-0.012284716591238976,
0.47499999999999998,-0.013510784134268761,
0.47749999999999998,-0.013799270614981651,
0.47999999999999998,-0.013919472694396973,
0.48249999999999998,-0.013919472694396973,
0.48499999999999999,-0.014400283806025982,
0.48749999999999999,-0.015337864868342876,
0.48999999999999999,-0.016996663063764572,
0.49249999999999999,-0.019520919770002365,
0.495,-0.027093689888715744,
0.4975,-0.031829677522182465,
0.5,-0.036782026290893555,
0.50249999999999995,-0.041566096246242523,
0.505,-0.049283109605312347,
0.50749999999999995,-0.05168716236948967,
0.51000000000000001,-0.053009390830993652,
0.51249999999999996,-0.053394041955471039,
0.51500000000000001,-0.052360296249389648,
0.51749999999999996,-0.051711201667785645,
0.52000000000000002,-0.051494836807250977,
0.52249999999999996,-0.052047770470380783,
0.52500000000000002,-0.056110620498657227,
0.52749999999999997,-0.059596501290798187,
0.53000000000000003,-0.063899755477905273,
0.53249999999999997,-0.068755947053432465,
0.53500000000000003,-0.079141460359096527,
0.53749999999999998,-0.084286138415336609,
0.54000000000000004,-0.089214444160461426,
0.54249999999999998,-0.093902349472045898,
0.54500000000000004,-0.10279735177755356,
0.54749999999999999,-0.10722081363201141,
0.55000000000000004,-0.11174043267965317,
0.55249999999999999,-0.11647641658782959,
0.55500000000000005,-0.12693405151367188,
0.5575,-0.13277590274810791,
0.56000000000000005,-0.13907453417778015,
0.5625,-0.14582991600036621,
0.56499999999999995,-0.16078314185142517,
0.5675,-0.16895692050457001,
0.56999999999999995,-0.17758747935295105,
0.57250000000000001,-0.18655459582805634,
0.57499999999999996,-0.205234095454216,
0.57750000000000001,-0.2146579921245575,
0.57999999999999996,-0.22396168112754822,
0.58250000000000002,-0.23297688364982605,
0.58499999999999996,-0.24970909953117371,
0.58750000000000002,-0.25728186964988708,
0.58999999999999997,-0.26434978842735291,
0.59250000000000003,-0.27093690633773804,
0.59499999999999997,-0.28295716643333435,
0.59750000000000003,-0.28855860233306885,
0.59999999999999998,-0.29394370317459106,
0.60250000000000004,-0.2991364598274231,
0.60499999999999998,-0.30851227045059204,
0.60750000000000004,-0.31245490908622742,
0.60999999999999999,-0.31562826037406921,
0.61250000000000004,-0.31786403059959412,
0.61499999999999999,-0.31884968280792236,
0.61750000000000005,-0.31731110811233521,
0.62,-0.31430602073669434,
0.62250000000000005,-0.30976235866546631,
0.625,-0.296059250831604,
0.62749999999999995,-0.28694790601730347,
0.63,-0.27644217014312744,
0.63249999999999995,-0.26461422443389893,
0.63500000000000001,-0.2376888245344162,
0.63749999999999996,-0.22297601401805878,
0.64000000000000001,-0.20773431658744812,
0.64249999999999996,-0.19222816824913025,
0.64500000000000002,-0.16128799319267273,
0.64749999999999996,-0.14626264572143555,
0.65000000000000002,-0.13174216449260712,
0.65249999999999997,-0.1177746057510376,
0.65500000000000003,-0.091690622270107269,
0.65749999999999997,-0.07955014705657959,
0.66000000000000003,-0.067938566207885742,
0.66249999999999998,-0.056855879724025726,
0.66500000000000004,-0.046278040856122971,
0.66749999999999998,-0.026853283867239952,
0.67000000000000004,-0.018150608986616135,
0.67249999999999999,-0.010193189606070518,
0.67500000000000004,0.0030531487427651882,
0.67749999999999999,0.0082939863204956055,
0.68000000000000005,0.012621283531188965,
0.6825,0.016155242919921875,
0.68500000000000005,0.02137204073369503,
0.6875,0.023343365639448166,
0.68999999999999995,0.025098323822021484,
0.6925,0.026733081787824631,
0.69499999999999995,0.02985835075378418,
0.69750000000000001,0.031300783157348633,
0.69999999999999996,0.032598972320556641,
0.70250000000000001,0.033704839646816254,
0.70499999999999996,0.035123229026794434,
0.70750000000000002,0.035387676209211349,
0.70999999999999996,0.035459797829389572,
0.71250000000000002,0.035387676209211349,
0.71499999999999997,0.035267472267150879,
0.71750000000000003,0.035459797829389572,
0.71999999999999997,0.035916566848754883,
0.72250000000000003,0.036709904670715332,
0.72499999999999998,0.03921012207865715,
0.72750000000000004,0.040748715400695801,
0.72999999999999998,0.042263269424438477,
0.73250000000000004,0.043633580207824707,
0.73499999999999999,0.045364499092102051,
0.73750000000000004,0.045508742332458496,
0.73999999999999999,0.045172177255153656,
0.74250000000000005,0.044378839433193207,
0.745,0.041974782943725586,
0.74750000000000005,0.040652554482221603,
0.75,0.039426486939191818,
0.75249999999999995,0.038464866578578949,
0.755,0.037407081574201584,
0.75749999999999995,0.037310920655727386,
0.76000000000000001,0.037431120872497559,
0.76249999999999996,0.037695568054914474,
0.76500000000000001,0.038344662636518478,
0.76749999999999996,0.038561027497053146,
0.77000000000000002,0.038657188415527344,
0.77249999999999996,0.038536988198757172,
0.77500000000000002,0.037527285516262054,
0.77749999999999997,0.036565661430358887,
0.78000000000000003,0.035291515290737152,
0.78249999999999997,0.033704839646816254,
0.78500000000000003,0.029906433075666428,
0.78749999999999998,0.027887027710676193,
0.79000000000000004,0.025963783264160156,
0.79249999999999998,0.024256905540823936,
0.79500000000000004,0.021949013695120811,
0.79749999999999999,0.021420121192932129,
0.80000000000000004,0.021275877952575684,
0.80249999999999999,0.021444162353873253,
0.80500000000000005,0.022069215774536133,
0.8075,0.022237500175833702,
0.81000000000000005,0.022141337394714355,
0.8125,0.021684568375349045,
0.81499999999999995,0.019641121849417686,
0.8175,0.018174648284912109,
0.81999999999999995,0.016539892181754112,
0.82250000000000001,0.014953216537833214,
0.82499999999999996,0.012356838211417198,
0.82750000000000001,0.011563500389456749,
0.82999999999999996,0.011202892288565636,
0.83250000000000002,0.011202892288565636,
0.83499999999999996,0.012020270340144634,
0.83750000000000002,0.012549161911010742,
0.83999999999999997,0.012957851402461529,
0.84250000000000003,0.013126134872436523,
0.84499999999999997,0.012501081451773643,
0.84750000000000003,0.01168370246887207,
0.84999999999999998,0.010577837936580181,
0.85250000000000004,0.0092796487733721733,
0.85499999999999998,0.006707310676574707,
0.85750000000000004,0.0056976079940795898,
0.85999999999999999,0.0049763917922973633,
0.86250000000000004,0.0046638650819659233,
0.86499999999999999,0.0053129596635699272,
0.86750000000000005,0.0062265000306069851,
0.87,0.0073804459534585476,
0.87250000000000005,0.0086786355823278427,
0.875,0.011202892288565636,
0.87749999999999995,0.01216451358050108,
0.88,0.012813608162105083,
0.88249999999999995,0.013102094642817974,
0.88500000000000001,0.013054013252258301,
0.88749999999999996,0.012068351730704308,
0.89000000000000001,0.011299054138362408,
0.89249999999999996,0.010457634925842285,
0.89500000000000002,0.0088950004428625107,
0.89749999999999996,0.0082939863204956055,
0.90000000000000002,0.0078612565994262695,
0.90249999999999997,0.0075968108139932156,
0.90500000000000003,0.0074766082689166069,
0.90749999999999997,0.0075246891938149929,
0.91000000000000003,0.0075968108139932156,
0.91249999999999998,0.0076208515092730522,
0.91500000000000004,0.0072842836380004883,
0.91749999999999998,0.006875594612210989,
0.92000000000000004,0.0063226623460650444,
0.92249999999999999,0.0056735677644610405,
0.92500000000000004,0.0042551755905151367,
0.92749999999999999,0.0036301217041909695,
0.93000000000000005,0.0031733512878417969,
0.9325,0.0028848648071289062,
0.93500000000000005,0.0029089055024087429,
0.9375,0.0031493108253926039,
0.93999999999999995,0.0034377973061054945,
0.9425,0.0037262837868183851,
0.94499999999999995,0.0039666891098022461,
0.94750000000000001,0.0037503242492675781,
0.94999999999999996,0.0032695136032998562,
0.95250000000000001,0.0024280946236103773,
0.95499999999999996,-0.000312527030473575,
0.95750000000000002,-0.0021876893006265163,
0.95999999999999996,-0.0043753786012530327,
0.96250000000000002,-0.0067313513718545437,
0.96499999999999997,-0.01139521598815918,
0.96750000000000003,-0.013342499732971191,
0.96999999999999997,-0.014857053756713867,
0.97250000000000003,-0.015746554359793663,
0.97499999999999998,-0.015506148338317871,
0.97750000000000004,-0.014472405426204205,
0.97999999999999998,-0.012981891632080078,
0.98250000000000004,-0.011299054138362408,
0.98499999999999999,-0.0083661079406738281,
0.98750000000000004,-0.0076929731294512749,
0.98999999999999999,-0.0078372163698077202,
0.99250000000000005,-0.009015202522277832,
0.995,-0.014760891906917095,
0.99750000000000005,-0.019232433289289474,
1,-0.02461751364171505,71.428565979003906
1.0024999999999999,-0.030675729736685753,
1.0049999999999999,-0.04365762323141098,
1.0075000000000001,-0.049932204186916351,
1.01,-0.055605769157409668,
1.0125,-0.060365796089172363,
1.0149999999999999,-0.066015325486660004,
1.0175000000000001,-0.066544219851493835,
1.02,-0.065438352525234222,
1.0225,-0.062745809555053711,
1.0249999999999999,-0.053081512451171875,
1.0275000000000001,-0.046638648957014084,
1.03,-0.039570730179548264,
1.0325,-0.032190285623073578,
1.0349999999999999,-0.017765959724783897,
1.0375000000000001,-0.011226932518184185,
1.04,-0.0052648782730102539,
1.0425,2.4040540665737353e-05,
1.0449999999999999,0.0087507572025060654,
1.0475000000000001,0.012260675430297852,
1.05,0.015193621627986431,
1.0525,0.017477473244071007,
1.0549999999999999,0.01937667652964592,
1.0575000000000001,0.018631419166922569,
1.0600000000000001,0.016612013801932335,
1.0625,0.013318459503352642,
1.0649999999999999,0.0041590137407183647,
1.0674999999999999,-0.00043272972106933594,
1.0700000000000001,-0.0038464865647256374,
1.0725,-0.0049523515626788139,
1.075,0.0041109323501586914,
1.0774999999999999,0.016035040840506554,
1.0800000000000001,0.033416353166103363,
1.0825,0.056038498878479004,
1.085,0.11320690810680389,
1.0874999999999999,0.14421920478343964,
1.0900000000000001,0.17359673976898193,
1.0925,0.19828638434410095,
1.095,0.22047579288482666,
1.0974999999999999,0.21131634712219238,
1.1000000000000001,0.18465539813041687,
1.1025,0.13820907473564148,
1.105,-0.018487175926566124,
1.1074999999999999,-0.12782356142997742,
1.1100000000000001,-0.25470954179763794,
1.1125,-0.3947216272354126,
1.115,-0.68856918811798096,
1.1174999999999999,-0.82660996913909912,
1.1200000000000001,-0.9471973180770874,
1.1225000000000001,-1.041965126991272,
1.125,-1.1272369623184204,
1.1274999999999999,-1.1099036931991577,
1.1299999999999999,-1.0520621538162231,
1.1325000000000001,-0.95717412233352661,
1.135,-0.68383318185806274,
1.1375,-0.52401167154312134,
1.1399999999999999,-0.36265155673027039,
1.1425000000000001,-0.20970563590526581,
1.145,0.039474569261074066,
1.1475,0.12592434883117676,
1.1499999999999999,0.18491983413696289,
1.1525000000000001,0.21809577941894531,
1.155,0.22273561358451843,
1.1575,0.20460903644561768,
1.1599999999999999,0.17999152839183807,
1.1625000000000001,0.15342673659324646,
1.165,0.10724484920501709,
1.1675,0.090849205851554871,
1.1699999999999999,0.0791655033826828,
1.1725000000000001,0.071472525596618652,
1.175,0.06325066089630127,
1.1775,0.060365796089172363,
1.1799999999999999,0.057192444801330566,
1.1825000000000001,0.053369998931884766,
1.1850000000000001,0.0438259057700634,
1.1875,0.038729310035705566,
1.1899999999999999,0.033921204507350922,
1.1924999999999999,0.029738148674368858,
1.1950000000000001,0.023728013038635254,
1.1975,0.021756689995527267,
1.2,0.020194053649902344,
1.2024999999999999,0.018799703568220139,
1.2050000000000001,0.015434026718139648,
1.2075,0.013198256492614746,
1.21,0.010553797706961632,
1.2124999999999999,0.0075968108139932156,
1.2150000000000001,0.0012981891632080078,
1.2175,-0.0016828378429636359,
1.22,-0.004351337905973196,
1.2224999999999999,-0.0065871081314980984,
1.2250000000000001,-0.0096642971038818359,
1.2275,-0.010577837936580181,
1.23,-0.011202892288565636,
1.2324999999999999,-0.01168370246887207,
1.2350000000000001,-0.012885729782283306,
1.2375,-0.013895432464778423,
1.24,-0.015313824638724327,
1.2424999999999999,-0.017188986763358116,
1.2450000000000001,-0.022261541336774826,
1.2475000000000001,-0.025314688682556152,
1.25,-0.028560161590576172,
1.2524999999999999,-0.031829677522182465,
1.2549999999999999,-0.038056176155805588,
1.2575000000000001,-0.040844880044460297,
1.26,-0.04336913675069809,
1.2625,-0.045677028596401215,
1.2649999999999999,-0.049980282783508301,
1.2675000000000001,-0.05214393138885498,
1.27,-0.054475866258144379,
1.2725,-0.057024162262678146,
1.2749999999999999,-0.063010260462760925,
1.2775000000000001,-0.06644805520772934,
1.28,-0.070078179240226746,
1.2825,-0.073900625109672546,
1.2849999999999999,-0.081906124949455261,
1.2875000000000001,-0.086089178919792175,
1.29,-0.090440511703491211,
1.2925,-0.095056295394897461,
1.2949999999999999,-0.10561009496450424,
1.2975000000000001,-0.11176447570323944,
1.3,-0.11864006519317627,
1.3025,-0.12621283531188965,
1.3049999999999999,-0.14330565929412842,
1.3075000000000001,-0.15258531272411346,
1.3100000000000001,-0.1621534526348114,
1.3125,-0.17179369926452637,
1.3149999999999999,-0.19071361422538757,
1.3174999999999999,-0.19975285232067108,
1.3200000000000001,-0.2084074467420578,
1.3225,-0.21660527586936951,
1.325,-0.23167869448661804,
1.3274999999999999,-0.23853024840354919,
1.3300000000000001,-0.24497310817241669,
1.3325,-0.25105535984039307,
1.335,-0.26216208934783936,
1.3374999999999999,-0.26725870370864868,
1.3400000000000001,-0.27204275131225586,
1.3425,-0.27651429176330566,
1.345,-0.28430342674255371,
1.3474999999999999,-0.28745275735855103,
1.3500000000000001,-0.28995296359062195,
1.3525,-0.29168388247489929,
1.355,-0.29221278429031372,
1.3574999999999999,-0.29069823026657104,
1.3600000000000001,-0.28781336545944214,
1.3625,-0.28343796730041504,
1.365,-0.26990315318107605,
1.3674999999999999,-0.26067158579826355,
1.3700000000000001,-0.2498052567243576,
1.3725000000000001,-0.23737630248069763,
1.375,-0.20843148231506348,
1.3774999999999999,-0.19232432544231415,
1.3799999999999999,-0.17549595236778259,
1.3825000000000001,-0.15823483467102051,
1.385,-0.12371262162923813,
1.3875,-0.10710060596466064,
1.3899999999999999,-0.091257892549037933,
1.3925000000000001,-0.076400838792324066,
1.395,-0.050148569047451019,
1.3975,-0.038777392357587814,
1.3999999999999999,-0.028488039970397949,
1.4025000000000001,-0.019136270508170128,
1.405,-0.0026684999465942383,
1.4075,0.0047119460068643093,
1.4099999999999999,0.011635622009634972,
1.4125000000000001,0.018102526664733887,
1.415,0.029497742652893066,
1.4175,0.034257769584655762,
1.4199999999999999,0.038224458694458008,
1.4225000000000001,0.041421853005886078,
1.425,0.045460663735866547,
1.4275,0.046542488038539886,
1.4299999999999999,0.04719158262014389,
1.4325000000000001,0.047648351639509201,
1.4350000000000001,0.048634015023708344,
1.4375,0.049475431442260742,
1.4399999999999999,0.050653420388698578,
1.4424999999999999,0.052192013710737228,
1.4450000000000001,0.056014459580183029,
1.4475,0.058033864945173264,
1.45,0.059957109391689301,
1.4524999999999999,0.061615906655788422,
1.4550000000000001,0.063659355044364929,
1.4575,0.063971877098083496,
1.46,0.063803598284721375,
1.4624999999999999,0.063274703919887543,
1.4650000000000001,0.061615906655788422,
1.4675,0.060774486511945724,
1.47,0.060077309608459473,
1.4724999999999999,0.059596501290798187,
1.4750000000000001,0.059187810868024826,
1.4775,0.059115689247846603,
1.48,0.059019528329372406,
1.4824999999999999,0.058779120445251465,
1.4850000000000001,0.05755305290222168,
1.4875,0.05659143254160881,
1.49,0.055485568940639496,
1.4924999999999999,0.054331623017787933,
1.4950000000000001,0.052576661109924316,
1.4975000000000001,0.052216053009033203,
1.5,0.052288174629211426,
1.5024999999999999,0.052793025970458984,
1.5049999999999999,0.054860513657331467,
1.5075000000000001,0.056110620498657227,
1.51,0.057288609445095062,
1.5125,0.058202147483825684,
1.5149999999999999,0.05875508114695549,
1.5175000000000001,0.058322351425886154,
1.52,0.057432852685451508,
1.5225,0.056230824440717697,
1.5249999999999999,0.053466163575649261,
1.5275000000000001,0.052240096032619476,
1.53,0.051278471946716309,
1.5325,0.050629377365112305,
1.5349999999999999,0.050220690667629242,
1.5375000000000001,0.050268769264221191,
1.54,0.050316851586103439,
1.5425,0.050220690667629242,
1.5449999999999999,0.049235027283430099,
1.5475000000000001,0.048297446221113205,
1.55,0.047143500298261642,
1.5525,0.045869350433349609,
1.5549999999999999,0.043633580207824707,
1.5575000000000001,0.042960446327924728,
1.5600000000000001,0.042695999145507812,
1.5625,0.04291236400604248,
1.5649999999999999,0.044475000351667404,
1.5674999999999999,0.045556824654340744,
1.5700000000000001,0.046590566635131836,
1.5725,0.047407947480678558,
1.575,0.047744512557983398,
1.5774999999999999,0.047119460999965668,
1.5800000000000001,0.04598955437541008,
1.5825,0.044475000351667404,
1.585,0.040917001664638519,
1.5874999999999999,0.039258204400539398,
1.5900000000000001,0.037887893617153168,
1.5925,0.036902230232954025,
1.595,0.036036770790815353,
1.5974999999999999,0.036012731492519379,
1.6000000000000001,0.036108892410993576,
1.6025,0.036181014031171799,
1.605,0.035892527550458908,
1.6074999999999999,0.035387676209211349,
1.6100000000000001,0.034714542329311371,
1.6125,0.033921204507350922,
1.615,0.032382607460021973,
1.6174999999999999,0.031829677522182465,
1.6200000000000001,0.031493108719587326,
1.6225000000000001,0.031396947801113129,
1.625,0.031781595200300217,
1.6274999999999999,0.032070081681013107,
1.6299999999999999,0.03231048583984375,
1.6325000000000001,0.032406650483608246,
1.635,0.032046042382717133,
1.6375,0.031637351959943771,
1.6399999999999999,0.031180581077933311,
1.6425000000000001,0.030795931816101074,
1.645,0.030675729736685753,
1.6475,0.031084418296813965,
1.6499999999999999,0.031781595200300217,
1.6525000000000001,0.032671093940734863,
1.655,0.034522216767072678,
1.6575,0.035123229026794434,
1.6599999999999999,0.035339593887329102,
1.6625000000000001,0.035123229026794434,
1.665,0.03334423154592514,
1.6675,0.032021999359130859,
1.6699999999999999,0.03060360811650753,
1.6725000000000001,0.0292332973331213,
1.675,0.027117729187011719,
1.6775,0.026516716927289963,
1.6799999999999999,0.026228230446577072,
1.6825000000000001,0.026180148124694824,
1.6850000000000001,0.02661287784576416,
1.6875,0.026949446648359299,
1.6899999999999999,0.027310054749250412,
1.6924999999999999,0.027646621689200401,
1.6950000000000001,0.02815147303044796,
1.6975,0.028271675109863281,
1.7,0.028319757431745529,
1.7024999999999999,0.028295716270804405,
1.7050000000000001,0.027983188629150391,
1.7075,0.027766823768615723,
1.71,0.027550458908081055,
1.7124999999999999,0.027358135208487511,
1.7150000000000001,0.027189850807189941,
1.7175,0.027261972427368164,
1.72,0.027358135208487511,
1.7224999999999999,0.027478337287902832,
1.7250000000000001,0.027406215667724609,
1.7275,0.027021568268537521,
1.73,0.026300352066755295,
1.7324999999999999,0.025194486603140831,
1.7350000000000001,0.021876892074942589,
1.7375,0.019809406250715256,
1.74,0.017645757645368576,
1.7424999999999999,0.015578269958496094,
1.7450000000000001,0.012260675430297852,
1.7475000000000001,0.011323094367980957,
1.75,0.010938446037471294,
1.7524999999999999,0.01108268927782774,
1.7549999999999999,0.012693405151367188,
1.7575000000000001,0.013823310844600201,
1.76,0.01492917537689209,
1.7625,0.015818675979971886,
1.7649999999999999,0.016179284080862999,
1.7675000000000001,0.015409986488521099,
1.77,0.013871392235159874,
1.7725,0.011563500389456749,
1.7749999999999999,0.00461578369140625,
1.7775000000000001,7.2121620178222656e-05,
1.78,-0.0050004324875771999,
1.7825,-0.010457634925842285,
1.7849999999999999,-0.021732648834586143,
1.7875000000000001,-0.027021568268537521,
1.79,-0.031709473580121994,
1.7925,-0.03555595874786377,
1.7949999999999999,-0.039763055741786957,
1.7975000000000001,-0.039811134338378906,
1.8,-0.038392744958400726,
1.8025,-0.03555595874786377,
1.8049999999999999,-0.026132067665457726,
1.8075000000000001,-0.019977688789367676,
1.8100000000000001,-0.013270378112792969,
1.8125,-0.0062265000306069851,
1.8149999999999999,0.0077170133590698242,
1.8174999999999999,0.014256040565669537,
1.8200000000000001,0.020386379212141037,
1.8225,0.026059946045279503,
1.825,0.036132931709289551,
1.8274999999999999,0.04046022891998291,
1.8300000000000001,0.044258635491132736,
1.8325,0.047287743538618088,
1.835,0.050244729965925217,
1.8374999999999999,0.049667757004499435,
1.8400000000000001,0.04752814769744873,
1.8425,0.043873988091945648,
1.845,0.033632718026638031,
1.8474999999999999,0.028488039970397949,
1.8500000000000001,0.024665594100952148,
1.8525,0.023415487259626389,
1.855,0.033127866685390472,
1.8574999999999999,0.045797228813171387,
1.8600000000000001,0.064116120338439941,
1.8625,0.087747976183891296,
1.865,0.14614245295524597,
1.8674999999999999,0.17701050639152527,
1.8700000000000001,0.20549854636192322,
1.8725000000000001,0.2284572571516037,
1.875,0.24429997801780701,
1.8774999999999999,0.23057281970977783,
1.8799999999999999,0.19859890639781952,
1.8825000000000001,0.14621457457542419,
1.885,-0.023271244019269943,
1.8875,-0.13885816931724548,
1.8899999999999999,-0.2713455855846405,
1.8925000000000001,-0.41590136289596558,
1.895,-0.71398001909255981,
1.8975,-0.85096299648284912,
1.8999999999999999,-0.96811258792877197,
1.9025000000000001,-1.0570626258850098,
1.905,-1.1248809099197388,
1.9075,-1.0970901250839233,
1.9099999999999999,-1.0287188291549683,
1.9125000000000001,-0.92414242029190063,
1.915,-0.63724261522293091,
1.9175,-0.47465643286705017,
1.9199999999999999,-0.31341654062271118,
1.9225000000000001,-0.16325931251049042,
1.925,0.074693962931632996,
1.9275,0.15436431765556335,
1.9299999999999999,0.20686885714530945,
1.9325000000000001,0.23456355929374695,
1.9350000000000001,0.23276051878929138,
1.9375,0.2137204110622406,
1.9399999999999999,0.18936733901500702,
1.9424999999999999,0.16386032104492188,
1.9450000000000001,0.12029886245727539,
1.9475,0.10481675714254379,
1.95,0.093661949038505554,
1.9524999999999999,0.086089178919792175,
1.9550000000000001,0.077771149575710297,
1.9575,0.075126692652702332,
1.96,0.072554349899291992,
1.9624999999999999,0.069669485092163086,
1.9650000000000001,0.062721773982048035,
1.9675,0.058827202767133713,
1.97,0.054908595979213715,
1.9724999999999999,0.051158271729946136,
1.9750000000000001,0.044643282890319824,
1.9775,0.041974782943725586,
1.98,0.039714973419904709,
1.9824999999999999,0.037767689675092697,
1.9850000000000001,0.034570299088954926,
1.9875,0.033079784363508224,
1.99,0.031517148017883301,
1.9924999999999999,0.029786229133605957,
1.9950000000000001,0.025675296783447266,
1.9975000000000001,0.023319324478507042,
2,0.020867189392447472,71.428565979003906
2.0024999999999999,0.018463134765625,
2.0049999999999999,0.014207959175109863,
2.0074999999999998,0.012525121681392193,
2.0099999999999998,0.011202892288565636,
2.0125000000000002,0.010169148445129395,
2.0150000000000001,0.0083901491016149521,
2.0175000000000001,0.0073804459534585476,
2.02,0.0060582160949707031,
2.0225,0.004351337905973196,
2.0249999999999999,-0.000312527030473575,
2.0274999999999999,-0.0031973919831216335,
2.0299999999999998,-0.0062745809555053711,
2.0325000000000002,-0.0094238920137286186,
2.0350000000000001,-0.015626352280378342,
2.0375000000000001,-0.018511217087507248,
2.04,-0.021251838654279709,
2.0425,-0.023872256278991699,
2.0449999999999999,-0.028872689232230186,
2.0474999999999999,-0.031372904777526855,
2.0499999999999998,-0.033945243805646896,
2.0525000000000002,-0.036637783050537109,
2.0550000000000002,-0.042479634284973145,
2.0575000000000001,-0.045725107192993164,
2.0600000000000001,-0.049235027283430099,
2.0625,-0.053081512451171875,
2.0649999999999999,-0.06200055405497551,
2.0674999999999999,-0.067169271409511566,
2.0699999999999998,-0.072866879403591156,
2.0724999999999998,-0.079045295715332031,
2.0750000000000002,-0.092772446572780609,
2.0775000000000001,-0.10010480880737305,
2.0800000000000001,-0.10762950032949448,
2.0825,-0.11520227044820786,
2.085,-0.13010740280151367,
2.0874999999999999,-0.13739168643951416,
2.0899999999999999,-0.14457981288433075,
2.0924999999999998,-0.15176793932914734,
2.0950000000000002,-0.16662499308586121,
2.0975000000000001,-0.17453432083129883,
2.1000000000000001,-0.1828523576259613,
2.1025,-0.19157907366752625,
2.105,-0.20975372195243835,
2.1074999999999999,-0.21884104609489441,
2.1099999999999999,-0.2276158332824707,
2.1124999999999998,-0.23588578402996063,
2.1150000000000002,-0.25023800134658813,
2.1175000000000002,-0.25620004534721375,
2.1200000000000001,-0.26139280200004578,
2.1225000000000001,-0.26588839292526245,
2.125,-0.27326881885528564,
2.1274999999999999,-0.27622580528259277,
2.1299999999999999,-0.27870199084281921,
2.1324999999999998,-0.28055310249328613,
2.1349999999999998,-0.28156280517578125,
2.1375000000000002,-0.28019249439239502,
2.1400000000000001,-0.27721148729324341,
2.1425000000000001,-0.27242740988731384,
2.145,-0.25708955526351929,
2.1475,-0.24658381938934326,
2.1499999999999999,-0.2344193160533905,
2.1524999999999999,-0.22083640098571777,
2.1549999999999998,-0.19076168537139893,
2.1575000000000002,-0.17489492893218994,
2.1600000000000001,-0.15885989367961884,
2.1625000000000001,-0.14282485842704773,
2.165,-0.111427903175354,
2.1675,-0.096210241317749023,
2.1699999999999999,-0.081401273608207703,
2.1724999999999999,-0.067049071192741394,
2.1749999999999998,-0.039883255958557129,
2.1775000000000002,-0.027189850807189941,
2.1800000000000002,-0.015193621627986431,
2.1825000000000001,-0.0039426488801836967,
2.1850000000000001,0.016035040840506554,
2.1875,0.024689635261893272,
2.1899999999999999,0.032430689781904221,
2.1924999999999999,0.039282243698835373,
2.1949999999999998,0.050364933907985687,
2.1974999999999998,0.054764352738857269,
2.2000000000000002,0.058490633964538574,
2.2025000000000001,0.061688028275966644,
2.2050000000000001,0.066904827952384949,
2.2075,0.069164633750915527,
2.21,0.071304246783256531,
2.2124999999999999,0.073371730744838715,
2.2149999999999999,0.077242255210876465,
2.2174999999999998,0.078949138522148132,
2.2200000000000002,0.080463692545890808,
2.2225000000000001,0.081689760088920593,
2.2250000000000001,0.083204314112663269,
2.2275,0.08349280059337616,
2.23,0.083540879189968109,
2.2324999999999999,0.083420678973197937,
2.2349999999999999,0.082915827631950378,
2.2374999999999998,0.08269946277141571,
2.2400000000000002,0.082555219531059265,
2.2425000000000002,0.082555219531059265,
2.2450000000000001,0.082891784608364105,
2.2475000000000001,0.083156228065490723,
2.25,0.083468757569789886,
2.2524999999999999,0.083709165453910828,
2.2549999999999999,0.083829365670681,
2.2574999999999998,0.083661079406738281,
2.2599999999999998,0.083300471305847168,
2.2625000000000002,0.082771584391593933,
2.2650000000000001,0.081521473824977875,
2.2675000000000001,0.080896422266960144,
2.27,0.080343484878540039,
2.2725,0.079934798181056976,
2.2749999999999999,0.07950206845998764,
2.2774999999999999,0.079453989863395691,
2.2799999999999998,0.079429946839809418,
2.2825000000000002,0.079357825219631195,
2.2850000000000001,0.078852973878383636,
2.2875000000000001,0.078348122537136078,
2.29,0.077674984931945801,
2.2925,0.076905690133571625,
2.2949999999999999,0.075367093086242676,
2.2974999999999999,0.074814163148403168,
2.2999999999999998,0.074573755264282227,
2.3025000000000002,0.074693962931632996,
2.3050000000000002,0.076112352311611176,
2.3075000000000001,0.077338419854640961,
2.3100000000000001,0.078732773661613464,
2.3125,0.080127120018005371,
2.3149999999999999,0.082266733050346375,
2.3174999999999999,0.08269946277141571,
2.3199999999999998,0.082627341151237488,
2.3224999999999998,0.082026325166225433,
2.3250000000000002,0.079670354723930359,
2.3275000000000001,0.078203879296779633,
2.3300000000000001,0.076785489916801453,
2.3325,0.075535379350185394,
2.335,0.073996782302856445,
2.3374999999999999,0.073708295822143555,
2.3399999999999999,0.073636174201965332,
2.3424999999999998,0.073708295822143555,
2.3450000000000002,0.073732338845729828,
2.3475000000000001,0.07346789538860321,
2.3500000000000001,0.072939001023769379,
2.3525,0.072145663201808929,
2.355,0.06998201459646225,
2.3574999999999999,0.068755947053432465,
2.3599999999999999,0.067602001130580902,
2.3624999999999998,0.066616341471672058,
2.3650000000000002,0.065342187881469727,
2.3675000000000002,0.065125823020935059,
2.3700000000000001,0.065125823020935059,
2.3725000000000001,0.065294109284877777,
2.375,0.06570279598236084,
2.3774999999999999,0.065798960626125336,
2.3799999999999999,0.06570279598236084,
2.3824999999999998,0.065390273928642273,
2.3849999999999998,0.06428440660238266,
2.3875000000000002,0.063587233424186707,
2.3900000000000001,0.062914095818996429,
2.3925000000000001,0.062313079833984375,
2.395,0.061591863632202148,
2.3975,0.061495702713727951,
2.3999999999999999,0.061591863632202148,
2.4024999999999999,0.061784189194440842,
2.4049999999999998,0.062216918915510178,
2.4075000000000002,0.0622890405356884,
2.4100000000000001,0.06212075799703598,
2.4125000000000001,0.061712067574262619,
2.415,0.06000518798828125,
2.4175,0.05875508114695549,
2.4199999999999999,0.05738477036356926,
2.4224999999999999,0.055990420281887054,
2.4249999999999998,0.053778689354658127,
2.4275000000000002,0.053201716393232346,
2.4300000000000002,0.053105555474758148,
2.4325000000000001,0.053514242172241211,
2.4350000000000001,0.055581729859113693,
2.4375,0.056976079940795898,
2.4399999999999999,0.058418512344360352,
2.4424999999999999,0.059716701507568359,
2.4449999999999998,0.061351459473371506,
2.4474999999999998,0.061519742012023926,
2.4500000000000002,0.061279337853193283,
2.4525000000000001,0.060654282569885254,
2.4550000000000001,0.05863487720489502,
2.4575,0.057456891983747482,
2.46,0.056278906762599945,
2.4624999999999999,0.055173039436340332,
2.4649999999999999,0.053369998931884766,
2.4674999999999998,0.052696865051984787,
2.4700000000000002,0.052216053009033203,
2.4725000000000001,0.051879487931728363,
2.4750000000000001,0.051831405609846115,
2.4775,0.052119892090559006,
2.48,0.05260070413351059,
2.4824999999999999,0.053249798715114594,
2.4849999999999999,0.054860513657331467,
2.4874999999999998,0.055653851479291916,
2.4900000000000002,0.056278906762599945,
2.4925000000000002,0.056663554161787033,
2.4950000000000001,0.056375067681074142,
2.4975000000000001,0.055677890777587891,
2.5,0.054716270416975021,
2.5024999999999999,0.053586363792419434,
2.5049999999999999,0.051470797508955002,
2.5074999999999998,0.050797663629055023,
2.5099999999999998,0.050509177148342133,
2.5125000000000002,0.050653420388698578,
2.5150000000000001,0.052023731172084808,
2.5175000000000001,0.052985351532697678,
2.52,0.053922932595014572,
2.5225,0.054572027176618576,
2.5249999999999999,0.054379701614379883,
2.5274999999999999,0.053297877311706543,
2.5299999999999998,0.05151887983083725,
2.5325000000000002,0.049090784043073654,
2.5350000000000001,0.042888324707746506,
2.5375000000000001,0.039570730179548264,
2.54,0.036445461213588715,
2.5425,0.033825039863586426,
2.5449999999999999,0.030892094597220421,
2.5474999999999999,0.030844014137983322,
2.5499999999999998,0.031733512878417969,
2.5525000000000002,0.03351251408457756,
2.5550000000000002,0.038681231439113617,
2.5575000000000001,0.041518013924360275,
2.5600000000000001,0.044114392250776291,
2.5625,0.046205919235944748,
2.5649999999999999,0.04798492044210434,
2.5674999999999999,0.047480069100856781,
2.5699999999999998,0.045965515077114105,
2.5724999999999998,0.043489336967468262,
2.5750000000000002,0.035940609872341156,
2.5775000000000001,0.03106037899851799,
2.5800000000000001,0.025555094704031944,
2.5825,0.019617080688476562,
2.585,0.0070198378525674343,
2.5874999999999999,0.00084141892148181796,
2.5899999999999999,-0.0049042701721191406,
2.5924999999999998,-0.0098806619644165039,
2.5950000000000002,-0.016347568482160568,
2.5975000000000001,-0.017309188842773438,
2.6000000000000001,-0.016563933342695236,
2.6025,-0.014015635475516319,
2.605,-0.0040628514252603054,
2.6074999999999999,0.0028608243446797132,
2.6099999999999999,0.01060187816619873,
2.6124999999999998,0.018775662407279015,
2.6150000000000002,0.034714542329311371,
2.6175000000000002,0.041878622025251389,
2.6200000000000001,0.048201285302639008,
2.6225000000000001,0.053586363792419434,
2.625,0.061615906655788422,
2.6274999999999999,0.064380571246147156,
2.6299999999999999,0.06639997661113739,
2.6324999999999998,0.067650079727172852,
2.6349999999999998,0.067674122750759125,
2.6375000000000002,0.066279768943786621,
2.6400000000000001,0.063875719904899597,
2.6425000000000001,0.060534082353115082,
2.645,0.052095852792263031,
2.6475,0.048129163682460785,
2.6499999999999999,0.045364499092102051,
2.6524999999999999,0.044763486832380295,
2.6549999999999998,0.054091215133666992,
2.6575000000000002,0.065582595765590668,
2.6600000000000001,0.082146525382995605,
2.6625000000000001,0.10356664657592773,
2.665,0.15734533965587616,
2.6675,0.18636226654052734,
2.6699999999999999,0.21355211734771729,
2.6724999999999999,0.23595790565013885,
2.6749999999999998,0.2530747652053833,
2.6775000000000002,0.24103045463562012,
2.6800000000000002,0.21117210388183594,
2.6825000000000001,0.16116778552532196,
2.6850000000000001,-0.0034137568436563015,
2.6875,-0.11669278144836426,
2.6899999999999999,-0.24699251353740692,
2.6924999999999999,-0.38938462734222412,
2.6949999999999998,-0.68263113498687744,
2.6974999999999998,-0.81668120622634888,
2.7000000000000002,-0.93041700124740601,
2.7025000000000001,-1.0154964923858643,
2.7050000000000001,-1.0747324228286743,
2.7075,-1.0426863431930542,
2.71,-0.9705166220664978,
2.7124999999999999,-0.86295926570892334,
2.7149999999999999,-0.57360732555389404,
2.7174999999999998,-0.41193467378616333,
2.7200000000000002,-0.25312286615371704,
2.7225000000000001,-0.10669191926717758,
2.7250000000000001,0.12087583541870117,
2.7275,0.19465625286102295,
2.73,0.24143914878368378,
2.7324999999999999,0.26396512985229492,
2.7349999999999999,0.25502204895019531,
2.7374999999999998,0.23444335162639618,
2.7400000000000002,0.2099941223859787,
2.7425000000000002,0.18568913638591766,
2.7450000000000001,0.14734447002410889,
2.7475000000000001,0.13508379459381104,
2.75,0.12698213756084442,
2.7524999999999999,0.12195765972137451,
2.7549999999999999,0.1159956082701683,
2.7574999999999998,0.11296650022268295,
2.7599999999999998,0.10907193273305893,
2.7625000000000002,0.10414361953735352,
2.7650000000000001,0.092123351991176605,
2.7675000000000001,0.085800692439079285,
2.77,0.07983863353729248,
2.7725,0.074525676667690277,
2.7749999999999999,0.066279768943786621,
2.7774999999999999,0.063298746943473816,
2.7799999999999998,0.060822568833827972,
2.7825000000000002,0.058706998825073242,
2.7850000000000001,0.054932635277509689,
2.7875000000000001,0.053081512451171875,
2.79,0.051206350326538086,
2.7925,0.049331188201904297,
2.7949999999999999,0.045773189514875412,
2.7974999999999999,0.044138431549072266,
2.7999999999999998,0.042599838227033615,
2.8025000000000002,0.041157405823469162,
2.8050000000000002,0.038416784256696701,
2.8075000000000001,0.037046473473310471,
2.8100000000000001,0.035652123391628265,
2.8125,0.034161608666181564,
2.8149999999999999,0.030819972977042198,
2.8174999999999999,0.028920769691467285,
2.8199999999999998,0.026829242706298828,
2.8224999999999998,0.024521350860595703,
2.8250000000000002,0.019304554909467697,
2.8275000000000001,0.016419690102338791,
2.8300000000000001,0.013414621353149414,
2.8325,0.010337432846426964,
2.835,0.0043753786012530327,
2.8374999999999999,0.0016107162227854133,
2.8399999999999999,-0.00091354054166004062,
2.8424999999999998,-0.0031973919831216335,
2.8450000000000002,-0.0072842836380004883,
2.8475000000000001,-0.0092796487733721733,
2.8500000000000001,-0.011467337608337402,
2.8525,-0.013967554084956646,
2.855,-0.020434459671378136,
2.8574999999999999,-0.024497311562299728,
2.8599999999999999,-0.02906501293182373,
2.8624999999999998,-0.034065447747707367,
2.8650000000000002,-0.044667325913906097,
2.8675000000000002,-0.050004325807094574,
2.8700000000000001,-0.05522112175822258,
2.8725000000000001,-0.060293674468994141,
2.875,-0.070222422480583191,
2.8774999999999999,-0.075319014489650726,
2.8799999999999999,-0.080680057406425476,
2.8824999999999998,-0.086473822593688965,
2.8849999999999998,-0.099696122109889984,
2.8875000000000002,-0.10719677060842514,
2.8900000000000001,-0.1152503490447998,
2.8925000000000001,-0.12378474324941635,
2.895,-0.14179110527038574,
2.8975,-0.15102267265319824,
2.8999999999999999,-0.16027829051017761,
2.9024999999999999,-0.16941368579864502,
2.9049999999999998,-0.18696328997612,
2.9075000000000002,-0.19520919024944305,
2.9100000000000001,-0.2029983252286911,
2.9125000000000001,-0.21025857329368591,
2.915,-0.22302410006523132,
2.9175,-0.22848129272460938,
2.9199999999999999,-0.23331344127655029,
2.9224999999999999,-0.23749649524688721,
2.9249999999999998,-0.24401149153709412,
2.9275000000000002,-0.24634341895580292,
2.9300000000000002,-0.24800221621990204,
2.9325000000000001,-0.24891576170921326,
2.9350000000000001,-0.24807433784008026,
2.9375,-0.24600684642791748,
2.9399999999999999,-0.24259309470653534,
2.9424999999999999,-0.2376888245344162,
2.9449999999999998,-0.22280773520469666,
2.9474999999999998,-0.21278282999992371,
2.9500000000000002,-0.20119528472423553,
2.9525000000000001,-0.17402946949005127,
2.9550000000000001,-0.15910029411315918,
2.9575,-0.1436903178691864,
2.96,-0.12813608348369598,
2.9624999999999999,-0.11267801374197006,
2.9649999999999999,-0.082651376724243164,
2.9674999999999998,-0.068251095712184906,
2.9700000000000002,-0.054259501397609711,
2.9725000000000001,-0.027430256828665733,
2.9750000000000001,-0.01461664866656065,
2.9775,-0.002307891845703125,
2.98,0.0093998517841100693,
2.9824999999999999,0.030507445335388184,
2.9849999999999999,0.039642851799726486,
2.9874999999999998,0.047768555581569672,
2.9900000000000002,0.054836474359035492,
2.9925000000000002,0.060990851372480392,
2.9950000000000001,0.070967674255371094,
2.9975000000000001,0.075126692652702332,
3,0.079021260142326355,24.096385955810547
3.0024999999999999,0.08628150075674057,
3.0049999999999999,0.089767381548881531,
3.0074999999999998,0.093084976077079773,
3.0099999999999998,0.096138119697570801,
3.0125000000000002,0.10104238986968994,
3.0150000000000001,0.10270118713378906,
3.0175000000000001,0.10383109748363495,
3.02,0.10445614904165268,
3.0225,0.1047205924987793,
3.0249999999999999,0.1047205924987793,
3.0274999999999999,0.10479271411895752,
3.0299999999999998,0.10505716502666473,
3.0325000000000002,0.10633131116628647,
3.0350000000000001,0.10722081363201141,
3.0375000000000001,0.10813435167074203,
3.04,0.10895173251628876,
3.0425,0.11008163541555405,
3.0449999999999999,0.11032204329967499,
3.0474999999999999,0.11041820049285889,
3.0499999999999998,0.11049032211303711,
3.0525000000000002,0.11094709485769272,
3.0550000000000002,0.11147598922252655,
3.0575000000000001,0.11219720542430878,
3.0600000000000001,0.11306266486644745,
3.0625,0.11474549770355225,
3.0649999999999999,0.11529843509197235,
3.0674999999999999,0.11546671390533447,
3.0699999999999998,0.11522631347179413,
3.0724999999999998,0.11344730854034424,
3.0750000000000002,0.11210104078054428,
3.0775000000000001,0.11058648675680161,
3.0800000000000001,0.10907193273305893,
3.0825,0.10640343278646469,
3.085,0.1053696870803833,
3.0874999999999999,0.1045282706618309,
3.0899999999999999,0.10383109748363495,
3.0924999999999998,0.10250886529684067,
3.0950000000000002,0.10176360607147217,
3.0975000000000001,0.1008981466293335,
3.1000000000000001,0.099936529994010925,
3.1025,0.097893081605434418,
3.105,0.096955500543117523,
3.1074999999999999,0.096138119697570801,
3.1099999999999999,0.095440946519374847,
3.1124999999999998,0.094383165240287781,
3.1150000000000002,0.093878313899040222,
3.1175000000000002,0.093325376510620117,
3.1200000000000001,0.092676281929016113,
3.1225000000000001,0.09094536304473877,
3.125,0.089911624789237976,
3.1274999999999999,0.088829800486564636,
3.1299999999999999,0.087723933160305023,
3.1324999999999998,0.085608363151550293,
3.1349999999999998,0.084598660469055176,
3.1375000000000002,0.083564922213554382,
3.1400000000000001,0.082507133483886719,
3.1425000000000001,0.08024732768535614,
3.145,0.079069338738918304,
3.1475,0.077891349792480469,
3.1499999999999999,0.076809525489807129,
3.1524999999999999,0.075102649629116058,
3.1549999999999998,0.07454971969127655,
3.1575000000000002,0.074213147163391113,
3.1600000000000001,0.074044868350028992,
3.1625000000000001,0.074044868350028992,
3.165,0.074092946946620941,
3.1675,0.074092946946620941,
3.1699999999999999,0.073996782302856445,
3.1724999999999999,0.073588095605373383,
3.1749999999999998,0.073323652148246765,
3.1775000000000002,0.073083244264125824,
3.1800000000000002,0.072939001023769379,
3.1825000000000001,0.072914958000183105,
3.1850000000000001,0.073395773768424988,
3.1875,0.0738525390625,
3.1899999999999999,0.074381433427333832,
3.1924999999999999,0.075343057513237,
3.1949999999999998,0.075583457946777344,
3.1974999999999998,0.075583457946777344,
3.2000000000000002,0.075294971466064453,
3.2025000000000001,0.073948703706264496,
3.2050000000000001,0.073083244264125824,
3.2075,0.072217784821987152,
3.21,0.071520611643791199,
3.2124999999999999,0.07101576030254364,
3.2149999999999999,0.07135232537984848,
3.2174999999999998,0.072049498558044434,
3.2200000000000002,0.073035165667533875,
3.2225000000000001,0.075343057513237,
3.2250000000000001,0.076376795768737793,
3.2275,0.077170133590698242,
3.23,0.077578827738761902,
3.2324999999999999,0.077266298234462738,
3.2349999999999999,0.076641246676445007,
3.2374999999999998,0.075823865830898285,
3.2400000000000002,0.074958406388759613,
3.2425000000000002,0.073564052581787109,
3.2450000000000001,0.07317940890789032,
3.2475000000000001,0.073035165667533875,
3.25,0.073083244264125824,
3.2524999999999999,0.073419809341430664,
3.2549999999999999,0.073564052581787109,
3.2574999999999998,0.073564052581787109,
3.2599999999999998,0.073491930961608887,
3.2625000000000002,0.07317940890789032,
3.2650000000000001,0.073107287287712097,
3.2675000000000001,0.07317940890789032,
3.27,0.073419809341430664,
3.2725,0.074237190186977386,
3.2749999999999999,0.0745977982878685,
3.2774999999999999,0.074742041528224945,
3.2799999999999998,0.074525676667690277,
3.2825000000000002,0.072722636163234711,
3.2850000000000001,0.071087881922721863,
3.2875000000000001,0.069068476557731628,
3.29,0.06678462028503418,
3.2925,0.062192879617214203,
3.2949999999999999,0.060149431228637695,
3.2974999999999999,0.058490633964538574,
3.2999999999999998,0.057264566421508789,
3.3025000000000002,0.056182742118835449,
3.3050000000000002,0.056278906762599945,
3.3075000000000001,0.056735675781965256,
3.3100000000000001,0.057432852685451508,
3.3125,0.059163771569728851,
3.3149999999999999,0.059909027069807053,
3.3174999999999999,0.060389839112758636,
3.3199999999999998,0.060437917709350586,
3.3224999999999998,0.058466594666242599,
3.3250000000000002,0.056158702820539474,
3.3275000000000001,0.052841108292341232,
3.3300000000000001,0.048537850379943848,
3.3325,0.037383042275905609,
3.335,0.031012296676635742,
3.3374999999999999,0.024593472480773926,
3.3399999999999999,0.018559297546744347,
3.3424999999999998,0.0095200538635253906,
3.3450000000000002,0.0072602434083819389,
3.3475000000000001,0.0068515539169311523,
3.3500000000000001,0.0083901491016149521,
3.3525,0.016732215881347656,
3.355,0.022958716377615929,
3.3574999999999999,0.029954513534903526,
3.3599999999999999,0.037310920655727386,
3.3624999999999998,0.051326554268598557,
3.3650000000000002,0.057456891983747482,
3.3675000000000002,0.062769852578639984,
3.3700000000000001,0.067337557673454285,
3.3725000000000001,0.074693962931632996,
3.375,0.077891349792480469,
3.3774999999999999,0.08092045783996582,
3.3799999999999999,0.083877444267272949,
3.3824999999999998,0.089118286967277527,
3.3849999999999998,0.090969406068325043,
3.3875000000000002,0.091906987130641937,
3.3900000000000001,0.091618500649929047,
3.3925000000000001,0.087002716958522797,
3.395,0.082987949252128601,
3.3975,0.078564487397670746,
3.3999999999999999,0.074573755264282227,
3.4024999999999999,0.072337985038757324,
3.4049999999999998,0.076424881815910339,
3.4075000000000002,0.08524775505065918,
3.4100000000000001,0.099335514008998871,
3.4125000000000001,0.14277677237987518,
3.415,0.17025510966777802,
3.4175,0.19919991493225098,
3.4199999999999999,0.22715906798839569,
3.4224999999999999,0.26795586943626404,
3.4249999999999998,0.27415832877159119,
3.4275000000000002,0.26648938655853271,
3.4300000000000002,0.24201612174510956,
3.4325000000000001,0.13421833515167236,
3.4350000000000001,0.049114823341369629,
3.4375,-0.055750012397766113,
3.4399999999999999,-0.17768363654613495,
3.4424999999999999,-0.45352479815483093,
3.4449999999999998,-0.59401774406433105,
3.4474999999999998,-0.7254713773727417,
3.4500000000000002,-0.83923125267028809,
3.4525000000000001,-0.98232054710388184,
3.4550000000000001,-0.99984610080718994,
3.4575,-0.97744029760360718,
3.46,-0.91589653491973877,
3.4624999999999999,-0.69340133666992188,
3.4649999999999999,-0.5478358268737793,
3.4674999999999998,-0.39238971471786499,
3.4700000000000002,-0.23747245967388153,
3.4725000000000001,0.033945243805646896,
3.4750000000000001,0.13676664233207703,
3.4775,0.21285495162010193,
3.48,0.26196977496147156,
3.4824999999999999,0.28995296359062195,
3.4849999999999999,0.27810096740722656,
3.4874999999999998,0.25636833906173706,
3.4900000000000002,0.22997181117534637,
3.4925000000000002,0.17955879867076874,
3.4950000000000001,0.16049465537071228,
3.4975000000000001,0.14671942591667175,
3.5,0.1378244161605835,
3.5024999999999999,0.130083367228508,
3.5049999999999999,0.1284966915845871,
3.5074999999999998,0.12686192989349365,
3.5099999999999998,0.12445788085460663,
3.5125000000000002,0.11635621637105942,
3.5150000000000001,0.11097113788127899,
3.5175000000000001,0.10522544384002686,
3.52,0.099503800272941589,
3.5225,0.089406773447990417,
3.5249999999999999,0.085319876670837402,
3.5274999999999999,0.081882081925868988,
3.5299999999999998,0.078925095498561859,
3.5325000000000002,0.073948703706264496,
3.5350000000000001,0.07168889045715332,
3.5375000000000001,0.069453120231628418,
3.54,0.067313514649868011,
3.5425,0.063442990183830261,
3.5449999999999999,0.061808228492736816,
3.5474999999999999,0.060413878411054611,
3.5499999999999998,0.059211850166320801,
3.5525000000000002,0.057168405503034592,
3.5550000000000002,0.056110620498657227,
3.5575000000000001,0.054860513657331467,
3.5600000000000001,0.053321920335292816,
3.5625,0.049283109605312347,
3.5649999999999999,0.046734809875488281,
3.5674999999999999,0.043922066688537598,
3.5699999999999998,0.040917001664638519,
3.5724999999999998,0.0345943383872509,
3.5750000000000002,0.031445026397705078,
3.5775000000000001,0.028415918350219727,
3.5800000000000001,0.025555094704031944,
3.5825,0.020386379212141037,
3.585,0.018102526664733887,
3.5874999999999999,0.015962919220328331,
3.5899999999999999,0.013967554084956646,
3.5924999999999998,0.010048946365714073,
3.5950000000000002,0.0080295410007238388,
3.5975000000000001,0.0059139728546142578,
3.6000000000000001,0.0036541621666401625,
3.6025,-0.0013943513622507453,
3.605,-0.0042070946656167507,
3.6074999999999999,-0.0073083243332803249,
3.6099999999999999,-0.010722081176936626,
3.6124999999999998,-0.018847784027457237,
3.6150000000000002,-0.023752054199576378,
3.6175000000000002,-0.029305418953299522,
3.6200000000000001,-0.035531919449567795,
3.6225000000000001,-0.049787960946559906,
3.625,-0.057577095925807953,
3.6274999999999999,-0.065582595765590668,
3.6299999999999999,-0.073612138628959656,
3.6324999999999998,-0.089118286967277527,
3.6349999999999998,-0.096426606178283691,
3.6375000000000002,-0.10339836776256561,
3.6400000000000001,-0.110129714012146,
3.6425000000000001,-0.12347221374511719,
3.645,-0.13037185370922089,
3.6475,-0.13758401572704315,
3.6499999999999999,-0.14520487189292908,
3.6524999999999999,-0.16157647967338562,
3.6549999999999998,-0.17018298804759979,
3.6575000000000002,-0.17878949642181396,
3.6600000000000001,-0.18725177645683289,
3.6625000000000001,-0.20278196036815643,
3.665,-0.20948927104473114,
3.6675,-0.2153070867061615,
3.6699999999999999,-0.22018730640411377,
3.6724999999999999,-0.22711098194122314,
3.6749999999999998,-0.22932271659374237,
3.6775000000000002,-0.23076514899730682,
3.6800000000000002,-0.23155848681926727,
3.6825000000000001,-0.23119787871837616,
3.6850000000000001,-0.22987565398216248,
3.6875,-0.22763988375663757,
3.6899999999999999,-0.22422611713409424,
3.6924999999999999,-0.21302323043346405,
3.6949999999999998,-0.20480136573314667,
3.6974999999999998,-0.1947043389081955,
3.7000000000000002,-0.18268406391143799,
3.7025000000000001,-0.15352289378643036,
3.7050000000000001,-0.13700704276561737,
3.7075,-0.11969785392284393,
3.71,-0.1021001785993576,
3.7124999999999999,-0.067746244370937347,
3.7149999999999999,-0.051711201667785645,
3.7174999999999998,-0.036709904670715332,
3.7200000000000002,-0.022838514298200607,
3.7225000000000001,0.0018992027034983039,
3.7250000000000001,0.013126134872436523,
3.7275,0.023824175819754601,
3.73,0.034209690988063812,
3.7324999999999999,0.054211419075727463,
3.7349999999999999,0.063779555261135101,
3.7374999999999998,0.072890922427177429,
3.7400000000000002,0.081305108964443207,
3.7425000000000002,0.095392867922782898,
3.7450000000000001,0.10075390338897705,
3.7475000000000001,0.10491292178630829,
3.75,0.10791798681020737,
3.7524999999999999,0.11118750274181366,
3.7549999999999999,0.11190871894359589,
3.7574999999999998,0.11238952726125717,
3.7599999999999998,0.11284630000591278,
3.7625000000000002,0.11462529748678207,
3.7650000000000001,0.11611580848693848,
3.7675000000000001,0.11806309223175049,
3.77,0.12032290548086166,
3.7725,0.12525121867656708,
3.7749999999999999,0.12751102447509766,
3.7774999999999999,0.12938618659973145,
3.7799999999999998,0.13078054785728455,
3.7825000000000002,0.13186237215995789,
3.7850000000000001,0.13162195682525635,
3.7875000000000001,0.13102094829082489,
3.79,0.13020357489585876,
3.7925,0.12866497039794922,
3.7949999999999999,0.12825629115104675,
3.7974999999999999,0.12820820510387421,
3.7999999999999998,0.12854477763175964,
3.8025000000000002,0.13022761046886444,
3.8050000000000002,0.13133347034454346,
3.8075000000000001,0.1324152946472168,
3.8100000000000001,0.13332884013652802,
3.8125,0.13414621353149414,
3.8149999999999999,0.1339058130979538,
3.8174999999999999,0.13323268294334412,
3.8199999999999998,0.13224701583385468,
3.8224999999999998,0.1297948807477951,
3.8250000000000002,0.12861689925193787,
3.8275000000000001,0.12760719656944275,
3.8300000000000001,0.12683789432048798,
3.8325,0.12592434883117676,
3.835,0.12565991282463074,
3.8374999999999999,0.12534737586975098,
3.8399999999999999,0.12491464614868164,
3.8424999999999998,0.12335201352834702,
3.8450000000000002,0.12219806760549545,
3.8475000000000001,0.12082775682210922,
3.8500000000000001,0.11931320279836655,
3.8525,0.1162840947508812,
3.855,0.11491378396749496,
3.8574999999999999,0.11378388106822968,
3.8599999999999999,0.11287033557891846,
3.8624999999999998,0.11176447570323944,
3.8650000000000002,0.11150002479553223,
3.8675000000000002,0.11130770295858383,
3.8700000000000001,0.11111538112163544,
3.8725000000000001,0.11034607887268066,
3.875,0.10960082709789276,
3.8774999999999999,0.10851900279521942,
3.8799999999999999,0.10712464898824692,
3.8824999999999998,0.10363876819610596,
3.8849999999999998,0.10178764909505844,
3.8875000000000002,0.1000567302107811,
3.8900000000000001,0.098590254783630371,
3.8925000000000001,0.097027622163295746,
3.895,0.096979543566703796,
3.8975,0.097364187240600586,
3.8999999999999999,0.098061367869377136,
3.9024999999999999,0.099551878869533539,
3.9049999999999998,0.099984608590602875,
3.9075000000000002,0.099960565567016602,
3.9100000000000001,0.099455714225769043,
3.9125000000000001,0.097171865403652191,
3.915,0.095705389976501465,
3.9175,0.094287000596523285,
3.9199999999999999,0.093157097697257996,
3.9224999999999999,0.092195473611354828,
3.9249999999999998,0.092339716851711273,
3.9275000000000002,0.092676281929016113,
3.9300000000000002,0.092940732836723328,
3.9325000000000001,0.09193103015422821,
3.9350000000000001,0.090176068246364594,
3.9375,0.087531611323356628,
3.9399999999999999,0.08411785215139389,
3.9424999999999999,0.076472960412502289,
3.9449999999999998,0.073275566101074219,
3.9474999999999998,0.071208082139492035,
3.9500000000000002,0.070679187774658203,
3.9525000000000001,0.074982449412345886,
3.9550000000000001,0.079526111483573914,
3.9575,0.085151597857475281,
3.96,0.091281935572624207,
3.9624999999999999,0.10241270065307617,
3.9649999999999999,0.10635535418987274,
3.9674999999999998,0.10878344625234604,
3.9700000000000002,0.10964890569448471,
3.9725000000000001,0.10748525708913803,
3.9750000000000001,0.10520140826702118,
3.9775,0.10270118713378906,
3.98,0.10039329528808594,
3.9824999999999999,0.09734015166759491,
3.9849999999999999,0.096691057085990906,
3.9874999999999998,0.096498727798461914,
3.9900000000000002,0.096474692225456238,
3.9925000000000002,0.095945797860622406,
3.9950000000000001,0.095008216798305511,
3.9975000000000001,0.093565784394741058,
4,0.091690622270107269,62.111801147460938
4.0025000000000004,0.087483525276184082,
4.0049999999999999,0.085776649415493011,
4.0075000000000003,0.084694825112819672,
4.0099999999999998,0.084430381655693054,
4.0125000000000002,0.086666151881217957,
4.0149999999999997,0.088901922106742859,
4.0175000000000001,0.091594457626342773,
4.0199999999999996,0.096979543566703796,
4.0225,0.099022984504699707,
4.0250000000000004,0.10034521669149399,
4.0274999999999999,0.10077794641256332,
4.0300000000000002,0.10032117366790771,
4.0324999999999998,0.097219944000244141,
4.0350000000000001,0.094960138201713562,
4.0374999999999996,0.092556081712245941,
4.04,0.090272232890129089,
4.0425000000000004,0.086834430694580078,
4.0449999999999999,0.085968971252441406,
4.0475000000000003,0.085728570818901062,
4.0499999999999998,0.086065135896205902,
4.0525000000000002,0.088060498237609863,
4.0549999999999997,0.089406773447990417,
4.0575000000000001,0.090777084231376648,
4.0599999999999996,0.092003151774406433,
4.0625,0.093493662774562836,
4.0650000000000004,0.093661949038505554,
4.0674999999999999,0.09339749813079834,
4.0700000000000003,0.091738700866699219,
4.0724999999999998,0.090464554727077484,
4.0750000000000002,0.088998079299926758,
4.0774999999999997,0.087411403656005859,
4.0800000000000001,0.085752606391906738,
4.0824999999999996,0.08241097629070282,
4.085,0.080752179026603699,
4.0875000000000004,0.079141460359096527,
4.0899999999999999,0.077530741691589355,
4.0925000000000002,0.074453555047512054,
4.0949999999999998,0.073059201240539551,
4.0975000000000001,0.071857176721096039,
4.0999999999999996,0.070342622697353363,
4.1025,0.070222422480583191,
4.1050000000000004,0.070583030581474304,
4.1074999999999999,0.071424447000026703,
4.1100000000000003,0.072674557566642761,
4.1124999999999998,0.075583457946777344,
4.1150000000000002,0.076761446893215179,
4.1174999999999997,0.07738649845123291,
4.1200000000000001,0.077170133590698242,
4.1224999999999996,0.073540017008781433,
4.125,0.06998201459646225,
4.1275000000000004,0.065342187881469727,
4.1299999999999999,0.053706567734479904,
4.1325000000000003,0.047311782836914062,
4.1349999999999998,0.041061244904994965,
4.1375000000000002,0.035291515290737152,
4.1399999999999997,0.030339162796735764,
4.1425000000000001,0.023872256278991699,
4.1449999999999996,0.022694271057844162,
4.1475,0.022958716377615929,
4.1500000000000004,0.027502378448843956,
4.1524999999999999,0.031517148017883301,
4.1550000000000002,0.036445461213588715,
4.1574999999999998,0.042070947587490082,
4.1600000000000001,0.054596066474914551,
4.1624999999999996,0.061135094612836838,
4.165,0.067626044154167175,
4.1675000000000004,0.073972746729850769,
4.1699999999999999,0.080030962824821472,
4.1725000000000003,0.090921327471733093,
4.1749999999999998,0.09551306813955307,
4.1775000000000002,0.09938359260559082,
4.1799999999999997,0.10440807044506073,
4.1825000000000001,0.1052735298871994,
4.1849999999999996,0.10486483573913574,
4.1875,0.10318200290203094,
4.1900000000000004,0.096330448985099792,
4.1924999999999999,0.091810822486877441,
4.1950000000000003,0.08736332505941391,
4.1974999999999998,0.08378128707408905,
4.2000000000000002,0.083300471305847168,
4.2024999999999997,0.088469192385673523,
4.2050000000000001,0.098397932946681976,
4.2074999999999996,0.11356751620769501,
4.21,0.15902817249298096,
4.2125000000000004,0.18744409084320068,
4.2149999999999999,0.21732649207115173,
4.2175000000000002,0.24610301852226257,
4.2199999999999998,0.2877652645111084,
4.2225000000000001,0.2937273383140564,
4.2249999999999996,0.28512081503868103,
4.2275,0.25889259576797485,
4.2300000000000004,0.14496445655822754,
4.2324999999999999,0.055653851479291916,
4.2350000000000003,-0.05397101491689682,
4.2374999999999998,-0.18095314502716064,
4.2400000000000002,-0.46662688255310059,
4.2424999999999997,-0.61144709587097168,
4.2450000000000001,-0.74660301208496094,
4.2474999999999996,-0.86341601610183716,
4.25,-1.010928750038147,
4.2525000000000004,-1.0300170183181763,
4.2549999999999999,-1.008933424949646,
4.2575000000000003,-0.94854354858398438,
4.2599999999999998,-0.72777926921844482,
4.2625000000000002,-0.58257442712783813,
4.2649999999999997,-0.4268878698348999,
4.2675000000000001,-0.27091285586357117,
4.2699999999999996,0.0056976079940795898,
4.2725,0.11279821395874023,
4.2750000000000004,0.19415140151977539,
4.2774999999999999,0.24927636981010437,
4.2800000000000002,0.28992891311645508,
4.2824999999999998,0.28387069702148438,
4.2850000000000001,0.26697021722793579,
4.2874999999999996,0.24417977035045624,
4.29,0.19669970870018005,
4.2925000000000004,0.17705857753753662,
4.2949999999999999,0.16167263686656952,
4.2975000000000003,0.15042166411876678,
4.2999999999999998,0.13731956481933594,
4.3025000000000002,0.13342499732971191,
4.3049999999999997,0.13005933165550232,
4.3075000000000001,0.12662152945995331,
4.3099999999999996,0.11856794357299805,
4.3125,0.11407236754894257,
4.3150000000000004,0.10957678407430649,
4.3174999999999999,0.10532160848379135,
4.3200000000000003,0.098205611109733582,
4.3224999999999998,0.095464989542961121,
4.3250000000000002,0.093157097697257996,
4.3274999999999997,0.091113649308681488,
4.3300000000000001,0.087243124842643738,
4.3324999999999996,0.085127554833889008,
4.335,0.082795619964599609,
4.3375000000000004,0.080223284661769867,
4.3399999999999999,0.0745977982878685,
4.3425000000000002,0.071736976504325867,
4.3449999999999998,0.068972311913967133,
4.3475000000000001,0.06639997661113739,
4.3499999999999996,0.062024593353271484,
4.3525,0.060245595872402191,
4.3550000000000004,0.058706998825073242,
4.3574999999999999,0.057360731065273285,
4.3600000000000003,0.054980717599391937,
4.3624999999999998,0.053802728652954102,
4.3650000000000002,0.05260070413351059,
4.3674999999999997,0.051278471946716309,
4.3700000000000001,0.048105120658874512,
4.3724999999999996,0.0461578369140625,
4.375,0.043946109712123871,
4.3775000000000004,0.041397809982299805,
4.3799999999999999,0.035315554589033127,
4.3825000000000003,0.031853716820478439,
4.3849999999999998,0.028175514191389084,
4.3875000000000002,0.024377107620239258,
4.3899999999999997,0.01675625704228878,
4.3925000000000001,0.013078054413199425,
4.3949999999999996,0.0095921754837036133,
4.3975,0.0062986216507852077,
4.4000000000000004,0.00028848648071289062,
4.4024999999999999,-0.002524256706237793,
4.4050000000000002,-0.0052889189682900906,
4.4074999999999998,-0.0081257028505206108,
4.4100000000000001,-0.014328162185847759,
4.4124999999999996,-0.017886161804199219,
4.415,-0.02182881161570549,
4.4175000000000004,-0.026204189285635948,
4.4199999999999999,-0.036421418190002441,
4.4225000000000003,-0.04228731244802475,
4.4249999999999998,-0.048634015023708344,
4.4275000000000002,-0.055485568940639496,
4.4299999999999997,-0.070655152201652527,
4.4325000000000001,-0.078949138522148132,
4.4349999999999996,-0.087651811540126801,
4.4375,-0.096691057085990906,
4.4400000000000004,-0.11541863530874252,
4.4424999999999999,-0.12484252452850342,
4.4450000000000003,-0.13414621353149414,
4.4474999999999998,-0.14320950210094452,
4.4500000000000002,-0.16037444770336151,
4.4524999999999997,-0.16845206916332245,
4.4550000000000001,-0.17621716856956482,
4.4574999999999996,-0.18371781706809998,
4.46,-0.19821426272392273,
4.4625000000000004,-0.20525813102722168,
4.4649999999999999,-0.21210968494415283,
4.4675000000000002,-0.21869680285453796,
4.4699999999999998,-0.22487521171569824,
4.4725000000000001,-0.2352607250213623,
4.4749999999999996,-0.23908317089080811,
4.4775,-0.24175167083740234,
4.4800000000000004,-0.24307391047477722,
4.4824999999999999,-0.24136702716350555,
4.4850000000000003,-0.23826579749584198,
4.4874999999999998,-0.23372213542461395,
4.4900000000000002,-0.22066812217235565,
4.4924999999999997,-0.21242222189903259,
4.4950000000000001,-0.20314256846904755,
4.4974999999999996,-0.19297342002391815,
4.5,-0.17013490200042725,
4.5025000000000004,-0.15753766894340515,
4.5049999999999999,-0.14419516921043396,
4.5075000000000003,-0.13013145327568054,
4.5099999999999998,-0.10010480880737305,
4.5125000000000002,-0.084406338632106781,
4.5149999999999997,-0.068491503596305847,
4.5175000000000001,-0.05260070413351059,
4.5199999999999996,-0.02182881161570549,
4.5225,-0.0074285268783569336,
4.5250000000000004,0.0060341758653521538,
4.5274999999999999,0.018415054306387901,
4.5300000000000002,0.029641985893249512,
4.5324999999999998,0.048417650163173676,
4.5350000000000001,0.056038498878479004,
4.5374999999999996,0.062577530741691589,
4.54,0.073059201240539551,
4.5425000000000004,0.077290341258049011,
4.5449999999999999,0.081040665507316589,
4.5475000000000003,0.08445441722869873,
4.5499999999999998,0.090704962611198425,
4.5525000000000002,0.093661949038505554,
4.5549999999999997,0.096522770822048187,
4.5575000000000001,0.099311470985412598,
4.5599999999999996,0.10443210601806641,
4.5625,0.10669191926717758,
4.5650000000000004,0.10866324603557587,
4.5674999999999999,0.11029800027608871,
4.5700000000000003,0.1121731624007225,
4.5724999999999998,0.11231740564107895,
4.5750000000000002,0.11188467592000961,
4.5774999999999997,0.11089901626110077,
4.5800000000000001,0.10755737870931625,
4.5824999999999996,0.10548989474773407,
4.585,0.10342240333557129,
4.5875000000000004,0.10159532725811005,
4.5899999999999999,0.099455714225769043,
4.5925000000000002,0.099431678652763367,
4.5949999999999998,0.10017693042755127,
4.5975000000000001,0.10157128423452377,
4.5999999999999996,0.10575433820486069,
4.6025,0.10808627307415009,
4.6050000000000004,0.11024992167949677,
4.6074999999999999,0.11202891916036606,
4.6100000000000003,0.1139521598815918,
4.6124999999999998,0.11397620290517807,
4.6150000000000002,0.11349539458751678,
4.6174999999999997,0.11255781352519989,
4.6200000000000001,0.1100335568189621,
4.6224999999999996,0.10868728160858154,
4.625,0.10741313546895981,
4.6275000000000004,0.10628323256969452,
4.6299999999999999,0.10443210601806641,
4.6325000000000003,0.10366281121969223,
4.6349999999999998,0.10301371663808823,
4.6375000000000002,0.10243674367666245,
4.6399999999999997,0.10161936283111572,
4.6425000000000001,0.10142704099416733,
4.6449999999999996,0.10142704099416733,
4.6475,0.10161936283111572,
4.6500000000000004,0.10226845741271973,
4.6524999999999999,0.10253290832042694,
4.6550000000000002,0.10258098691701889,
4.6574999999999998,0.10224442183971405,
4.6600000000000001,0.10010480880737305,
4.6624999999999996,0.098277732729911804,
4.665,0.096041962504386902,
4.6675000000000004,0.093541741371154785,
4.6699999999999999,0.088685557246208191,
4.6725000000000003,0.086738273501396179,
4.6749999999999998,0.085367962718009949,
4.6775000000000002,0.084694825112819672,
4.6799999999999997,0.085464119911193848,
4.6825000000000001,0.086738273501396179,
4.6849999999999996,0.088348984718322754,
4.6875,0.090079903602600098,
4.6900000000000004,0.092964768409729004,
4.6924999999999999,0.09368598461151123,
4.6950000000000003,0.093782149255275726,
4.6974999999999998,0.093205176293849945,
4.7000000000000002,0.090320311486721039,
4.7024999999999997,0.088300906121730804,
4.7050000000000001,0.086161300539970398,
4.7074999999999996,0.084045730531215668,
4.71,0.080680057406425476,
4.7125000000000004,0.079574190080165863,
4.7149999999999999,0.078925095498561859,
4.7175000000000002,0.078684687614440918,
4.7199999999999998,0.0791655033826828,
4.7225000000000001,0.079694390296936035,
4.7249999999999996,0.080343484878540039,
4.7275,0.080992579460144043,
4.7300000000000004,0.082170568406581879,
4.7324999999999999,0.082555219531059265,
4.7350000000000003,0.08274754136800766,
4.7374999999999998,0.08269946277141571,
4.7400000000000002,0.081641674041748047,
4.7424999999999997,0.08058389276266098,
4.7450000000000001,0.079189538955688477,
4.7474999999999996,0.077530741691589355,
4.75,0.073876582086086273,
4.7525000000000004,0.072217784821987152,
4.7549999999999999,0.070943638682365417,
4.7575000000000003,0.070198379456996918,
4.7599999999999998,0.070823431015014648,
4.7625000000000002,0.072193741798400879,
4.7649999999999997,0.074189111590385437,
4.7675000000000001,0.076569125056266785,
4.7699999999999996,0.081401273608207703,
4.7725,0.083300471305847168,
4.7750000000000004,0.084550581872463226,
4.7774999999999999,0.085007354617118835,
4.7800000000000002,0.083588957786560059,
4.7824999999999998,0.081954203546047211,
4.7850000000000001,0.080006919801235199,
4.7874999999999996,0.077987514436244965,
4.79,0.074621841311454773,
4.7925000000000004,0.073588095605373383,
4.7949999999999999,0.073059201240539551,
4.7975000000000003,0.072939001023769379,
4.7999999999999998,0.073612138628959656,
4.8025000000000002,0.074092946946620941,
4.8049999999999997,0.074501633644104004,
4.8075000000000001,0.074742041528224945,
4.8099999999999996,0.074525676667690277,
4.8125,0.074092946946620941,
4.8150000000000004,0.073540017008781433,
4.8174999999999999,0.072890922427177429,
4.8200000000000003,0.071712933480739594,
4.8224999999999998,0.071304246783256531,
4.8250000000000002,0.070991717278957367,
4.8274999999999997,0.070823431015014648,
4.8300000000000001,0.070703230798244476,
4.8324999999999996,0.070655152201652527,
4.835,0.070558987557888031,
4.8375000000000004,0.070414744317531586,
4.8399999999999999,0.070078179240226746,
4.8425000000000002,0.06998201459646225,
4.8449999999999998,0.070030093193054199,
4.8475000000000001,0.07027050107717514,
4.8499999999999996,0.071424447000026703,
4.8525,0.072265863418579102,
4.8550000000000004,0.07317940890789032,
4.8574999999999999,0.074092946946620941,
4.8600000000000003,0.075439214706420898,
4.8624999999999998,0.07567962259054184,
4.8650000000000002,0.075583457946777344,
4.8674999999999997,0.075126692652702332,
4.8700000000000001,0.073227487504482269,
4.8724999999999996,0.071953341364860535,
4.875,0.070558987557888031,
4.8775000000000004,0.069164633750915527,
4.8799999999999999,0.066760584712028503,
4.8825000000000003,0.065895125269889832,
4.8849999999999998,0.065294109284877777,
4.8875000000000002,0.064981579780578613,
4.8899999999999997,0.06502966582775116,
4.8925000000000001,0.065221987664699554,
4.8949999999999996,0.065438352525234222,
4.8975,0.065582595765590668,
4.9000000000000004,0.065414309501647949,
4.9024999999999999,0.06502966582775116,
4.9050000000000002,0.064452692866325378,
4.9074999999999998,0.063683390617370605,
4.9100000000000001,0.061712067574262619,
4.9124999999999996,0.060534082353115082,
4.915,0.059235893189907074,
4.9175000000000004,0.05784153938293457,
4.9199999999999999,0.054836474359035492,
4.9225000000000003,0.053297877311706543,
4.9249999999999998,0.05185544490814209,
4.9275000000000002,0.050557255744934082,
4.9299999999999997,0.048898458480834961,
4.9325000000000001,0.048682093620300293,
4.9349999999999996,0.048970580101013184,
4.9375,0.04969179630279541,
4.9400000000000004,0.05214393138885498,
4.9424999999999999,0.053514242172241211,
4.9450000000000003,0.054644148796796799,
4.9474999999999998,0.055269204080104828,
4.9500000000000002,0.055173039436340332,
4.9524999999999997,0.05180736631155014,
4.9550000000000001,0.04832148551940918,
4.9574999999999996,0.043609540909528732,
4.96,0.031204622238874435,
4.9625000000000004,0.024088621139526367,
4.9649999999999999,0.016876459121704102,
4.9675000000000002,0.0100008649751544,
4.9699999999999998,-0.0008895000210031867,
4.9725000000000001,-0.0041349730454385281,
4.9749999999999996,-0.0055774054490029812,
4.9775,-0.0050485134124755859,
4.9800000000000004,0.0017549594631418586,
4.9824999999999999,0.0075727701187133789,
4.9850000000000003,0.014520486816763878,
4.9874999999999998,0.022165378555655479,
4.9900000000000002,0.037647485733032227,
4.9924999999999997,0.044667325913906097,
4.9950000000000001,0.050869785249233246,
4.9974999999999996,0.056158702820539474,
5,0.06423632800579071,76.677314758300781
5.0025000000000004,0.067409679293632507,
5.0049999999999999,0.07027050107717514,
5.0075000000000003,0.072939001023769379,
5.0099999999999998,0.077650949358940125,
5.0125000000000002,0.079285703599452972,
5.0149999999999997,0.080006919801235199,
5.0175000000000001,0.079526111483573914,
5.0199999999999996,0.074381433427333832,
5.0225,0.070126257836818695,
5.0250000000000004,0.065558552742004395,
5.0274999999999999,0.061663985252380371,
5.0300000000000002,0.061135094612836838,
5.0324999999999998,0.067025028169155121,
5.0350000000000001,0.078420244157314301,
5.0374999999999996,0.095729433000087738,
5.04,0.11878430843353271,
5.0425000000000004,0.17770767211914062,
5.0449999999999999,0.20953735709190369,
5.0475000000000003,0.23913125693798065,
5.0499999999999998,0.27788460254669189,
5.0525000000000002,0.27975976467132568,
5.0549999999999997,0.26543161273002625,
5.0575000000000001,0.23206333816051483,
5.0599999999999996,0.10128279775381088,
5.0625,0.0033175945281982422,
5.0650000000000004,-0.11428873240947723,
5.0674999999999999,-0.24797818064689636,
5.0700000000000003,-0.54110449552536011,
5.0724999999999998,-0.68585258722305298,
5.0750000000000002,-0.81809961795806885,
5.0774999999999997,-0.9292149543762207,
5.0800000000000001,-1.0579520463943481,
5.0824999999999996,-1.0651402473449707,
5.085,-1.0315555334091187,
5.0875000000000004,-0.95890504121780396,
5.0899999999999999,-0.71816307306289673,
5.0925000000000002,-0.56665956974029541,
5.0949999999999998,-0.40775161981582642,
5.0975000000000001,-0.25160831212997437,
5.0999999999999996,0.017549594864249229,
5.1025,0.11837562173604965,
5.1050000000000004,0.19285321235656738,
5.1074999999999999,0.24127086997032166,
5.1100000000000003,0.27175426483154297,
5.1124999999999998,0.26283523440361023,
5.1150000000000002,0.24463653564453125,
5.1174999999999997,0.22184610366821289,
5.1200000000000001,0.17660181224346161,
5.1224999999999996,0.1584271639585495,
5.125,0.14426729083061218,
5.1275000000000004,0.13388177752494812,
5.1299999999999999,0.12116432189941406,
5.1325000000000003,0.11702935397624969,
5.1349999999999998,0.11330306529998779,
5.1375000000000002,0.10955274105072021,
5.1399999999999997,0.10137896239757538,
5.1425000000000001,0.097123786807060242,
5.1449999999999996,0.092964768409729004,
5.1475,0.089118286967277527,
5.1500000000000004,0.082603298127651215,
5.1524999999999999,0.079982876777648926,
5.1550000000000002,0.077674984931945801,
5.1574999999999998,0.07563154399394989,
5.1600000000000001,0.072073541581630707,
5.1624999999999996,0.070486865937709808,
5.165,0.069068476557731628,
5.1675000000000004,0.067770287394523621,
5.1699999999999999,0.065414309501647949,
5.1725000000000003,0.064260363578796387,
5.1749999999999998,0.062938138842582703,
5.1775000000000002,0.061351459473371506,
5.1799999999999997,0.057096283882856369,
5.1825000000000001,0.054331623017787933,
5.1849999999999996,0.051206350326538086,
5.1875,0.047792594879865646,
5.1900000000000004,0.040724676102399826,
5.1924999999999999,0.037407081574201584,
5.1950000000000003,0.034402012825012207,
5.1974999999999998,0.031853716820478439,
5.2000000000000002,0.028175514191389084,
5.2024999999999997,0.026949446648359299,
5.2050000000000001,0.026011865586042404,
5.2074999999999996,0.025170445442199707,
5.21,0.023151040077209473,
5.2125000000000004,0.021660527214407921,
5.2149999999999999,0.019737284630537033,
5.2175000000000002,0.017285149544477463,
5.2199999999999998,0.010986527428030968,
5.2225000000000001,0.0073083243332803249,
5.2249999999999996,0.0033897161483764648,
5.2275,-0.00062505406094714999,
5.2300000000000004,-0.00461578369140625,
5.2324999999999999,-0.012260675430297852,
5.2350000000000003,-0.015866756439208984,
5.2374999999999998,-0.01937667652964592,
5.2400000000000002,-0.026396512985229492,
5.2424999999999997,-0.030098756775259972,
5.2450000000000001,-0.034089487046003342,
5.2474999999999996,-0.038488905876874924,
5.25,-0.048826336860656738,
5.2525000000000004,-0.054836474359035492,
5.2549999999999999,-0.061423581093549728,
5.2575000000000003,-0.068515539169311523,
5.2599999999999998,-0.083877444267272949,
5.2625000000000002,-0.091906987130641937,
5.2649999999999997,-0.10008077323436737,
5.2675000000000001,-0.10832667350769043,
5.2699999999999996,-0.12503485381603241,
5.2725,-0.13359329104423523,
5.2750000000000004,-0.14236807823181152,
5.2774999999999999,-0.15138328075408936,
5.2800000000000002,-0.17011086642742157,
5.2824999999999998,-0.17963092029094696,
5.2850000000000001,-0.18903076648712158,
5.2874999999999996,-0.19811809062957764,
5.29,-0.21444162726402283,
5.2925000000000004,-0.22131721675395966,
5.2949999999999999,-0.22723118960857391,
5.2975000000000003,-0.23213545978069305,
5.2999999999999998,-0.23925146460533142,
5.3025000000000002,-0.24167954921722412,
5.3049999999999997,-0.24348258972167969,
5.3075000000000001,-0.24473270773887634,
5.3099999999999996,-0.24552604556083679,
5.3125,-0.24485290050506592,
5.3150000000000004,-0.24324218928813934,
5.3174999999999999,-0.24050156772136688,
5.3200000000000003,-0.2307891845703125,
5.3224999999999998,-0.22357702255249023,
5.3250000000000002,-0.21473011374473572,
5.3274999999999997,-0.20429651439189911,
5.3300000000000001,-0.17936646938323975,
5.3324999999999996,-0.1653268039226532,
5.335,-0.15058994293212891,
5.3375000000000004,-0.13537228107452393,
5.3399999999999999,-0.10448019206523895,
5.3425000000000002,-0.08907020092010498,
5.3449999999999998,-0.073900625109672546,
5.3475000000000001,-0.059019528329372406,
5.3499999999999996,-0.03060360811650753,
5.3525,-0.017309188842773438,
5.3550000000000004,-0.004735986702144146,
5.3574999999999999,0.0070198378525674343,
5.3600000000000003,0.027862986549735069,
5.3624999999999998,0.036974351853132248,
5.3650000000000002,0.045316420495510101,
5.3674999999999997,0.052961312234401703,
5.3700000000000001,0.066664420068264008,
5.3724999999999996,0.072914958000183105,
5.375,0.078852973878383636,
5.3775000000000004,0.084430381655693054,
5.3799999999999999,0.094407200813293457,
5.3825000000000003,0.098614297807216644,
5.3849999999999998,0.10224442183971405,
5.3875000000000002,0.10522544384002686,
5.3899999999999997,0.10914405435323715,
5.3925000000000001,0.11017780005931854,
5.3949999999999996,0.11065860837697983,
5.3975,0.11073072999715805,
5.4000000000000004,0.11008163541555405,
5.4024999999999999,0.10955274105072021,
5.4050000000000002,0.10902385413646698,
5.4074999999999998,0.10856708139181137,
5.4100000000000001,0.10796606540679932,
5.4124999999999996,0.10786990821361542,
5.415,0.10786990821361542,
5.4175000000000004,0.10799010843038559,
5.4199999999999999,0.10847091674804688,
5.4225000000000003,0.10883152484893799,
5.4249999999999998,0.1092882975935936,
5.4275000000000002,0.10984122753143311,
5.4299999999999997,0.11121153831481934,
5.4325000000000001,0.11202891916036606,
5.4349999999999996,0.11287033557891846,
5.4375,0.11373579502105713,
5.4400000000000004,0.11520227044820786,
5.4424999999999999,0.11570712178945541,
5.4450000000000003,0.1159956082701683,
5.4474999999999998,0.11597156524658203,
5.4500000000000002,0.11496186256408691,
5.4524999999999997,0.11400024592876434,
5.4550000000000001,0.11279821395874023,
5.4574999999999996,0.11145194619894028,
5.46,0.10878344625234604,
5.4625000000000004,0.10772566497325897,
5.4649999999999999,0.10702848434448242,
5.4675000000000002,0.10673999786376953,
5.4699999999999998,0.10738909244537354,
5.4725000000000001,0.10820647329092026,
5.4749999999999996,0.10914405435323715,
5.4775,0.11005759239196777,
5.4800000000000004,0.11104325950145721,
5.4824999999999999,0.11089901626110077,
5.4850000000000003,0.11022587865591049,
5.4874999999999998,0.10904788970947266,
5.4900000000000002,0.10568221658468246,
5.4924999999999997,0.10380705446004868,
5.4950000000000001,0.10207613557577133,
5.4974999999999996,0.10063370317220688,
5.5,0.099119149148464203,
5.5025000000000004,0.099119149148464203,
5.5049999999999999,0.099599957466125488,
5.5075000000000003,0.10039329528808594,
5.5099999999999998,0.10234057903289795,
5.5125000000000002,0.10310988128185272,
5.5149999999999997,0.10354261100292206,
5.5175000000000001,0.10354261100292206,
5.5199999999999996,0.10217230021953583,
5.5225,0.10092218965291977,
5.5250000000000004,0.099455714225769043,
5.5274999999999999,0.097893081605434418,
5.5300000000000002,0.09517650306224823,
5.5324999999999998,0.094214878976345062,
5.5350000000000001,0.093637906014919281,
5.5374999999999996,0.093445584177970886,
5.54,0.09409467875957489,
5.5425000000000004,0.094791851937770844,
5.5449999999999999,0.095537111163139343,
5.5475000000000003,0.096210241317749023,
5.5499999999999998,0.096811257302761078,
5.5525000000000002,0.096498727798461914,
5.5549999999999997,0.095657311379909515,
5.5575000000000001,0.094311043620109558,
5.5599999999999996,0.090344354510307312,
5.5625,0.088036462664604187,
5.5650000000000004,0.085800692439079285,
5.5674999999999999,0.083829365670681,
5.5700000000000003,0.081473395228385925,
5.5724999999999998,0.08132915198802948,
5.5750000000000002,0.081954203546047211,
5.5774999999999997,0.083276435732841492,
5.5800000000000001,0.087411403656005859,
5.5824999999999996,0.089839503169059753,
5.585,0.092243552207946777,
5.5875000000000004,0.094383165240287781,
5.5899999999999999,0.09734015166759491,
5.5925000000000002,0.097989246249198914,
5.5949999999999998,0.098085403442382812,
5.5975000000000001,0.097700759768486023,
5.5999999999999996,0.095897719264030457,
5.6025,0.09476780891418457,
5.6050000000000004,0.093637906014919281,
5.6074999999999999,0.092580124735832214,
5.6100000000000003,0.090969406068325043,
5.6124999999999998,0.090368390083312988,
5.6150000000000002,0.089911624789237976,
5.6174999999999997,0.08952697366476059,
5.6200000000000001,0.088925957679748535,
5.6224999999999996,0.08873363584280014,
5.625,0.088637471199035645,
5.6275000000000004,0.088637471199035645,
5.6299999999999999,0.08907020092010498,
5.6325000000000003,0.089406773447990417,
5.6349999999999998,0.089767381548881531,
5.6375000000000002,0.090031825006008148,
5.6399999999999997,0.089887581765651703,
5.6425000000000001,0.089334651827812195,
5.6449999999999996,0.088421106338500977,
5.6475,0.087195038795471191,
5.6500000000000004,0.084189973771572113,
5.6524999999999999,0.082723498344421387,
5.6550000000000002,0.081497430801391602,
5.6574999999999998,0.08063197135925293,
5.6600000000000001,0.080367527902126312,
5.6624999999999996,0.080992579460144043,
5.665,0.082026325166225433,
5.6675000000000004,0.083324514329433441,
5.6699999999999999,0.086065135896205902,
5.6725000000000003,0.087146960198879242,
5.6749999999999998,0.087844133377075195,
5.6775000000000002,0.088060498237609863,
5.6799999999999997,0.08702675998210907,
5.6825000000000001,0.085872814059257507,
5.6849999999999996,0.084406338632106781,
5.6875,0.082819662988185883,
5.6900000000000004,0.079742476344108582,
5.6924999999999999,0.07846832275390625,
5.6950000000000003,0.077506706118583679,
5.6974999999999998,0.076881647109985352,
5.7000000000000002,0.076737403869628906,
5.7024999999999997,0.077194176614284515,
5.7050000000000001,0.077939435839653015,
5.7074999999999996,0.07887701690196991,
5.71,0.081064701080322266,
5.7125000000000004,0.082098446786403656,
5.7149999999999999,0.082939863204956055,
5.7175000000000002,0.08349280059337616,
5.7199999999999998,0.083540879189968109,
5.7225000000000001,0.082963906228542328,
5.7249999999999996,0.082026325166225433,
5.7275,0.080776214599609375,
5.7300000000000004,0.077843271195888519,
5.7324999999999999,0.076400838792324066,
5.7350000000000003,0.075174771249294281,
5.7374999999999998,0.074237190186977386,
5.7400000000000002,0.073612138628959656,
5.7424999999999997,0.073972746729850769,
5.7450000000000001,0.074717998504638672,
5.7474999999999996,0.075775787234306335,
5.75,0.078251957893371582,
5.7525000000000004,0.079381868243217468,
5.7549999999999999,0.080271363258361816,
5.7575000000000003,0.080800257623195648,
5.7599999999999998,0.080656014382839203,
5.7625000000000002,0.079982876777648926,
5.7649999999999997,0.078973174095153809,
5.7675000000000001,0.077674984931945801,
5.7699999999999996,0.0745977982878685,
5.7725,0.072890922427177429,
5.7750000000000004,0.071135960519313812,
5.7774999999999999,0.069356963038444519,
5.7800000000000002,0.065847039222717285,
5.7824999999999998,0.06423632800579071,
5.7850000000000001,0.062793895602226257,
5.7874999999999996,0.061591863632202148,
5.79,0.060197513550519943,
5.7925000000000004,0.060077309608459473,
5.7949999999999999,0.060317717492580414,
5.7975000000000003,0.060894690454006195,
5.7999999999999998,0.062553487718105316,
5.8025000000000002,0.063298746943473816,
5.8049999999999997,0.063731476664543152,
5.8075000000000001,0.063635312020778656,
5.8099999999999996,0.06120721623301506,
5.8125,0.05863487720489502,
5.8150000000000004,0.055124960839748383,
5.8174999999999999,0.050725542008876801,
5.8200000000000003,0.039811134338378906,
5.8224999999999998,0.033704839646816254,
5.8250000000000002,0.02752641960978508,
5.8274999999999997,0.021492242813110352,
5.8300000000000001,0.010938446037471294,
5.8324999999999996,0.0068515539169311523,
5.835,0.0038464865647256374,
5.8375000000000004,0.0021155676804482937,
5.8399999999999999,0.0030531487427651882,
5.8425000000000002,0.0059139728546142578,
5.8449999999999998,0.010409554466605186,
5.8475000000000001,0.016395648941397667,
5.8499999999999996,0.031997960060834885,
5.8525,0.040917001664638519,
5.8550000000000004,0.050004325807094574,
5.8574999999999999,0.058803163468837738,
5.8600000000000003,0.074020825326442719,
5.8624999999999998,0.07983863353729248,
5.8650000000000002,0.084286138415336609,
5.8674999999999997,0.087291203439235687,
5.8700000000000001,0.089238487184047699,
5.8724999999999996,0.088348984718322754,
5.875,0.086305543780326843,
5.8775000000000004,0.083228349685668945,
5.8799999999999999,0.074429512023925781,
5.8825000000000003,0.06923675537109375,
5.8849999999999998,0.064116120338439941,
5.8875000000000002,0.05966862291097641,
5.8899999999999997,0.056351028382778168,
5.8925000000000001,0.059404175728559494,
5.8949999999999996,0.06678462028503418,
5.8975,0.079141460359096527,
5.9000000000000004,0.11928915977478027,
5.9024999999999999,0.14597415924072266,
5.9050000000000002,0.1753036230802536,
5.9074999999999998,0.20511388778686523,
5.9100000000000001,0.25487780570983887,
5.9124999999999996,0.26822030544281006,
5.915,0.26915788650512695,
5.9175000000000004,0.25434893369674683,
5.9199999999999999,0.16664902865886688,
5.9225000000000003,0.090512633323669434,
5.9249999999999998,-0.0072842836380004883,
5.9275000000000002,-0.12489061057567596,
5.9299999999999997,-0.40361663699150085,
5.9325000000000001,-0.55257183313369751,
5.9349999999999996,-0.69748818874359131,
5.9375,-0.82954287528991699,
5.9400000000000004,-1.0206171274185181,
5.9424999999999999,-1.0651882886886597,
5.9450000000000003,-1.069563627243042,
5.9474999999999998,-1.032589316368103,
5.9500000000000002,-0.8454817533493042,
5.9524999999999997,-0.70794582366943359,
5.9550000000000001,-0.55319690704345703,
5.9574999999999996,-0.39169251918792725,
5.96,-0.088805757462978363,
5.9625000000000004,0.035964649170637131,
5.9649999999999999,0.13561269640922546,
5.9675000000000002,0.20804683864116669,
5.9699999999999998,0.27538439631462097,
5.9725000000000001,0.27730762958526611,
5.9749999999999996,0.26468634605407715,
5.9775,0.24292966723442078,
5.9800000000000004,0.19064149260520935,
5.9824999999999999,0.16698560118675232,
5.9850000000000003,0.14758488535881042,
5.9874999999999998,0.1329682320356369,
5.9900000000000002,0.11623601615428925,
5.9924999999999997,0.11214911937713623,
5.9950000000000001,0.10943254083395004,
5.9974999999999996,0.10712464898824692,
6,0.1014510840177536,74.688796997070312
6.0025000000000004,0.097652673721313477,
6.0049999999999999,0.093277297914028168,
6.0075000000000003,0.088613435626029968,
6.0099999999999998,0.079285703599452972,
6.0125000000000002,0.075078606605529785,
6.0149999999999997,0.071304246783256531,
6.0175000000000001,0.067986652255058289,
6.0199999999999996,0.062649652361869812,
6.0225,0.060461960732936859,
6.0250000000000004,0.058490633964538574,
6.0274999999999999,0.056663554161787033,
6.0300000000000002,0.053153634071350098,
6.0324999999999998,0.051374636590480804,
6.0350000000000001,0.049571596086025238,
6.0374999999999996,0.047720473259687424,
6.04,0.043898027390241623,
6.0425000000000004,0.041998825967311859,
6.0449999999999999,0.040147703140974045,
6.0475000000000003,0.038344662636518478,
6.0499999999999998,0.035051107406616211,
6.0525000000000002,0.033536553382873535,
6.0549999999999997,0.032094120979309082,
6.0575000000000001,0.030723810195922852,
6.0599999999999996,0.028031270951032639,
6.0625,0.026684999465942383,
6.0650000000000004,0.025314688682556152,
6.0674999999999999,0.023848216980695724,
6.0700000000000003,0.020530622452497482,
6.0724999999999998,0.018559297546744347,
6.0750000000000002,0.01629948616027832,
6.0774999999999997,0.013655027374625206,
6.0800000000000001,0.0071640810929238796,
6.0824999999999996,0.0033175945281982422,
6.085,-0.00081737840082496405,
6.0875000000000004,-0.0051927566528320312,
6.0899999999999999,-0.013991594314575195,
6.0925000000000002,-0.018174648284912109,
6.0949999999999998,-0.022069215774536133,
6.0975000000000001,-0.025627216324210167,
6.0999999999999996,-0.031781595200300217,
6.1025,-0.034618377685546875,
6.1050000000000004,-0.037503242492675781,
6.1074999999999999,-0.040628515183925629,
6.1100000000000003,-0.048297446221113205,
6.1124999999999998,-0.053081512451171875,
6.1150000000000002,-0.058610837906599045,
6.1174999999999997,-0.064789257943630219,
6.1200000000000001,-0.078949138522148132,
6.1224999999999996,-0.086690187454223633,
6.125,-0.094743773341178894,
6.1275000000000004,-0.1030377596616745,
6.1299999999999999,-0.12034694850444794,
6.1325000000000003,-0.12933811545372009,
6.1349999999999998,-0.13854563236236572,
6.1375000000000002,-0.14794549345970154,
6.1399999999999997,-0.16693751513957977,
6.1425000000000001,-0.17621716856956482,
6.1449999999999996,-0.18511216342449188,
6.1475,-0.19345423579216003,
6.1500000000000004,-0.20804683864116669,
6.1524999999999999,-0.21424929797649384,
6.1550000000000002,-0.21980266273021698,
6.1574999999999998,-0.22480309009552002,
6.1600000000000001,-0.2337702214717865,
6.1624999999999996,-0.23790518939495087,
6.165,-0.24177572131156921,
6.1675000000000004,-0.24535775184631348,
6.1699999999999999,-0.25076687335968018,
6.1725000000000003,-0.25211316347122192,
6.1749999999999998,-0.25220930576324463,
6.1775000000000002,-0.25079092383384705,
6.1799999999999997,-0.24276137351989746,
6.1825000000000001,-0.23595790565013885,
6.1849999999999996,-0.22735139727592468,
6.1875,-0.21701395511627197,
6.1900000000000004,-0.19205987453460693,
6.1924999999999999,-0.17790000140666962,
6.1950000000000003,-0.16297082602977753,
6.1974999999999998,-0.14756083488464355,
6.2000000000000002,-0.1162840947508812,
6.2024999999999997,-0.10085006803274155,
6.2050000000000001,-0.085800692439079285,
6.2074999999999996,-0.071280203759670258,
6.21,-0.044162474572658539,
6.2125000000000004,-0.031685434281826019,
6.2149999999999999,-0.019881527870893478,
6.2175000000000002,-0.0087507572025060654,
6.2199999999999998,0.011803905479609966,
6.2225000000000001,0.021396081894636154,
6.2249999999999996,0.03060360811650753,
6.2275,0.039474569261074066,
6.2300000000000004,0.055990420281887054,
6.2324999999999999,0.063515111804008484,
6.2350000000000003,0.070438787341117859,
6.2374999999999998,0.076665282249450684,
6.2400000000000002,0.086906552314758301,
6.2424999999999997,0.090921327471733093,
6.2450000000000001,0.094335079193115234,
6.2474999999999996,0.097219944000244141,
6.25,0.10197997093200684,
6.2525000000000004,0.10404746234416962,
6.2549999999999999,0.10604282468557358,
6.2575000000000003,0.10791798681020737,
6.2599999999999998,0.11123558133840561,
6.2625000000000002,0.11253377050161362,
6.2649999999999997,0.11351943016052246,
6.2675000000000001,0.11414448916912079,
6.2699999999999996,0.11428873240947723,
6.2725,0.11392812430858612,
6.2750000000000004,0.11337518692016602,
6.2774999999999999,0.11277417838573456,
6.2800000000000002,0.11188467592000961,
6.2824999999999998,0.11174043267965317,
6.2850000000000001,0.11190871894359589,
6.2874999999999996,0.11231740564107895,
6.29,0.11366367340087891,
6.2925000000000004,0.11440893262624741,
6.2949999999999999,0.11503398418426514,
6.2975000000000003,0.1154426783323288,
6.2999999999999998,0.1153465136885643,
6.3025000000000002,0.11481761932373047,
6.3049999999999997,0.11400024592876434,
6.3075000000000001,0.1130145788192749,
6.3099999999999996,0.11094709485769272,
6.3125,0.11010567843914032,
6.3150000000000004,0.10952870547771454,
6.3174999999999999,0.1092882975935936,
6.3200000000000003,0.10969698429107666,
6.3224999999999998,0.11024992167949677,
6.3250000000000002,0.11089901626110077,
6.3274999999999997,0.11145194619894028,
6.3300000000000001,0.11181255429983139,
6.3324999999999996,0.1113317459821701,
6.335,0.11037012189626694,
6.3375000000000004,0.10892768949270248,
6.3399999999999999,0.10503312200307846,
6.3425000000000002,0.10294159501791,
6.3449999999999998,0.10097026824951172,
6.3475000000000001,0.099335514008998871,
6.3499999999999996,0.097508430480957031,
6.3525,0.09734015166759491,
6.3550000000000004,0.097604595124721527,
6.3574999999999999,0.098157525062561035,
6.3600000000000003,0.09938359260559082,
6.3624999999999998,0.099696122109889984,
6.3650000000000002,0.099575921893119812,
6.3674999999999997,0.098926827311515808,
6.3700000000000001,0.096041962504386902,
6.3724999999999996,0.093902349472045898,
6.375,0.091450214385986328,
6.3775000000000004,0.088853836059570312,
6.3799999999999999,0.083973608911037445,
6.3825000000000003,0.08200228214263916,
6.3849999999999998,0.080535814166069031,
6.3875000000000002,0.079598233103752136,
6.3899999999999997,0.079285703599452972,
6.3925000000000001,0.079766511917114258,
6.3949999999999996,0.080511771142482758,
6.3975,0.081377230584621429,
6.4000000000000004,0.083108149468898773,
6.4024999999999999,0.083805322647094727,
6.4050000000000002,0.084334217011928558,
6.4074999999999998,0.084718868136405945,
6.4100000000000001,0.085007354617118835,
6.4124999999999996,0.084935232996940613,
6.415,0.084670782089233398,
6.4175000000000004,0.084189973771572113,
6.4199999999999999,0.082483097910881042,
6.4225000000000003,0.081281065940856934,
6.4249999999999998,0.079862676560878754,
6.4275000000000002,0.078372165560722351,
6.4299999999999997,0.075583457946777344,
6.4325000000000001,0.074621841311454773,
6.4349999999999996,0.074068903923034668,
6.4375,0.074020825326442719,
6.4400000000000004,0.075439214706420898,
6.4424999999999999,0.076761446893215179,
6.4450000000000003,0.078276000916957855,
6.4474999999999998,0.079814597964286804,
6.4500000000000002,0.082098446786403656,
6.4524999999999997,0.082579255104064941,
6.4550000000000001,0.082459054887294769,
6.4574999999999996,0.081785917282104492,
6.46,0.079045295715332031,
6.4625000000000004,0.077338419854640961,
6.4649999999999999,0.075655579566955566,
6.4675000000000002,0.074189111590385437,
6.4699999999999998,0.072506271302700043,
6.4725000000000001,0.07243414968252182,
6.4749999999999996,0.072914958000183105,
6.4775,0.0738525390625,
6.4800000000000004,0.076641246676445007,
6.4824999999999999,0.078227922320365906,
6.4850000000000003,0.079718433320522308,
6.4874999999999998,0.080992579460144043,
6.4900000000000002,0.08241097629070282,
6.4924999999999997,0.082435011863708496,
6.4950000000000001,0.081930160522460938,
6.4974999999999996,0.080968543887138367,
6.5,0.077867314219474792,
6.5025000000000004,0.075992152094841003,
6.5049999999999999,0.074092946946620941,
6.5075000000000003,0.072313949465751648,
6.5099999999999998,0.069765649735927582,
6.5125000000000002,0.069188676774501801,
6.5149999999999997,0.069140598177909851,
6.5175000000000001,0.069573327898979187,
6.5199999999999996,0.071544647216796875,
6.5225,0.07277071475982666,
6.5250000000000004,0.073948703706264496,
6.5274999999999999,0.07488628476858139,
6.5300000000000002,0.075535379350185394,
6.5324999999999998,0.075150728225708008,
6.5350000000000001,0.074285268783569336,
6.5374999999999996,0.073107287287712097,
6.54,0.070390701293945312,
6.5425000000000004,0.06923675537109375,
6.5449999999999999,0.068419381976127625,
6.5475000000000003,0.068058773875236511,
6.5499999999999998,0.068828068673610687,
6.5525000000000002,0.069837771356105804,
6.5549999999999997,0.07106383889913559,
6.5575000000000001,0.072362028062343597,
6.5599999999999996,0.07454971969127655,
6.5625,0.075198814272880554,
6.5650000000000004,0.075463257730007172,
6.5674999999999999,0.075294971466064453,
6.5700000000000003,0.0738525390625,
6.5724999999999998,0.072698593139648438,
6.5750000000000002,0.071424447000026703,
6.5774999999999997,0.070126257836818695,
6.5800000000000001,0.067962609231472015,
6.5824999999999996,0.067289471626281738,
6.585,0.067049071192741394,
6.5875000000000004,0.067241393029689789,
6.5899999999999999,0.068828068673610687,
6.5925000000000002,0.070054136216640472,
6.5949999999999998,0.071376368403434753,
6.5975000000000001,0.072650514543056488,
6.5999999999999996,0.074429512023925781,
6.6025,0.074742041528224945,
6.6050000000000004,0.074621841311454773,
6.6074999999999999,0.074141025543212891,
6.6100000000000003,0.072362028062343597,
6.6124999999999998,0.07135232537984848,
6.6150000000000002,0.070366665720939636,
6.6174999999999997,0.069525241851806641,
6.6200000000000001,0.068347260355949402,
6.6224999999999996,0.067938566207885742,
6.625,0.067553922533988953,
6.6275000000000004,0.067121192812919617,
6.6299999999999999,0.06570279598236084,
6.6325000000000003,0.064596936106681824,
6.6349999999999998,0.063226625323295593,
6.6375000000000002,0.061591863632202148,
6.6399999999999997,0.057889621704816818,
6.6425000000000001,0.056014459580183029,
6.6449999999999996,0.054283540695905685,
6.6475,0.052817068994045258,
6.6500000000000004,0.051038067787885666,
6.6524999999999999,0.050845742225646973,
6.6550000000000002,0.051134228706359863,
6.6574999999999998,0.05180736631155014,
6.6600000000000001,0.053802728652954102,
6.6624999999999996,0.054740309715270996,
6.665,0.055269204080104828,
6.6675000000000004,0.055149000138044357,
6.6699999999999999,0.051903527230024338,
6.6725000000000003,0.04844168946146965,
6.6749999999999998,0.04370570182800293,
6.6775000000000002,0.037815771996974945,
6.6799999999999997,0.023848216980695724,
6.6825000000000001,0.016708176583051682,
6.6849999999999996,0.010169148445129395,
6.6875,0.004784067627042532,
6.6900000000000004,-0.0007692973013035953,
6.6924999999999999,-0.00048081082059070468,
6.6950000000000003,0.0018751621246337891,
6.6974999999999998,0.0061062974855303764,
6.7000000000000002,0.018535256385803223,
6.7024999999999997,0.025795500725507736,
6.7050000000000001,0.033103823661804199,
6.7074999999999996,0.040051542222499847,
6.71,0.052047770470380783,
6.7125000000000004,0.056952040642499924,
6.7149999999999999,0.061255298554897308,
6.7175000000000002,0.065125823020935059,
6.7199999999999998,0.072169706225395203,
6.7225000000000001,0.075463257730007172,
6.7249999999999996,0.07846832275390625,
6.7275,0.08092045783996582,
6.7300000000000004,0.082771584391593933,
6.7324999999999999,0.081569552421569824,
6.7350000000000003,0.078756809234619141,
6.7374999999999998,0.074525676667690277,
6.7400000000000002,0.064188241958618164,
6.7424999999999997,0.059981148689985275,
6.7450000000000001,0.058081947267055511,
6.7474999999999996,0.059764783829450607,
6.75,0.078011557459831238,
6.7525000000000004,0.095609232783317566,
6.7549999999999999,0.11866410821676254,
6.7575000000000003,0.14609436690807343,
6.7599999999999998,0.20667652785778046,
6.7625000000000002,0.23458759486675262,
6.7649999999999997,0.25668084621429443,
6.7675000000000001,0.26947042346000671,
6.7699999999999996,0.25353154540061951,
6.7725,0.21879296004772186,
6.7750000000000004,0.16330739855766296,
6.7774999999999999,0.086161300539970398,
6.7800000000000002,-0.12991508841514587,
6.7824999999999998,-0.26321989297866821,
6.7850000000000001,-0.40676593780517578,
6.7874999999999996,-0.55360555648803711,
6.79,-0.82403761148452759,
6.7925000000000004,-0.9301525354385376,
6.7949999999999999,-1.0061206817626953,
6.7975000000000003,-1.0457875728607178,
6.7999999999999998,-1.0040532350540161,
6.8025000000000002,-0.92409431934356689,
6.8049999999999997,-0.8107912540435791,
6.8075000000000001,-0.67200523614883423,
6.8099999999999996,-0.35748285055160522,
6.8125,-0.20251750946044922,
6.8150000000000004,-0.061591863632202148,
6.8174999999999999,0.058250229805707932,
6.8200000000000003,0.21949014067649841,
6.8224999999999998,0.2600705623626709,
6.8250000000000002,0.27723550796508789,
6.8274999999999997,0.27562481164932251,
6.8300000000000001,0.23744842410087585,
6.8324999999999996,0.21107594668865204,
6.835,0.18530449271202087,
6.8375000000000004,0.16268233954906464,
6.8399999999999999,0.131381556391716,
6.8425000000000002,0.12241443246603012,
6.8449999999999998,0.1167408674955368,
6.8475000000000001,0.11315882205963135,
6.8499999999999996,0.10799010843038559,
6.8525,0.10498504340648651,
6.8550000000000004,0.10125875473022461,
6.8574999999999999,0.096859335899353027,
6.8600000000000003,0.087002716958522797,
6.8624999999999998,0.082146525382995605,
6.8650000000000002,0.077674984931945801,
6.8674999999999997,0.073780417442321777,
6.8700000000000001,0.067794322967529297,
6.8724999999999996,0.065582595765590668,
6.875,0.063731476664543152,
6.8775000000000004,0.062024593353271484,
6.8799999999999999,0.058562755584716797,
6.8825000000000003,0.056543350219726562,
6.8849999999999998,0.054211419075727463,
6.8875000000000002,0.051591001451015472,
6.8899999999999997,0.045604906976222992,
6.8925000000000001,0.042479634284973145,
6.8949999999999996,0.039426486939191818,
6.8975,0.036637783050537109,
6.9000000000000004,0.032334528863430023,
6.9024999999999999,0.030964216217398643,
6.9050000000000002,0.030098756775259972,
6.9074999999999998,0.029617946594953537,
6.9100000000000001,0.029185216873884201,
6.9124999999999996,0.028800567612051964,
6.915,0.027983188629150391,
6.9175000000000004,0.02661287784576416,
6.9199999999999999,0.021852850914001465,
6.9225000000000003,0.018511217087507248,
6.9249999999999998,0.014688770286738873,
6.9275000000000002,0.010553797706961632,
6.9299999999999997,0.002067486522719264,
6.9325000000000001,-0.0019713244400918484,
6.9349999999999996,-0.0057456893846392632,
6.9375,-0.0091834869235754013,
6.9400000000000004,-0.015145540237426758,
6.9424999999999999,-0.017765959724783897,
6.9450000000000003,-0.02029021643102169,
6.9474999999999998,-0.022766392678022385,
6.9500000000000002,-0.028199553489685059,
6.9524999999999997,-0.031348865479230881,
6.9550000000000001,-0.034930907189846039,
6.9574999999999996,-0.038969717919826508,
6.96,-0.048585932701826096,
6.9625000000000004,-0.054163336753845215,
6.9649999999999999,-0.060149431228637695,
6.9675000000000002,-0.066472098231315613,
6.9699999999999998,-0.07983863353729248,
6.9725000000000001,-0.086714230477809906,
6.9749999999999996,-0.093637906014919281,
6.9775,-0.10060966014862061,
6.9800000000000004,-0.11479358375072479,
6.9824999999999999,-0.12212594598531723,
6.9850000000000003,-0.12972275912761688,
6.9874999999999998,-0.13765613734722137,
6.9900000000000002,-0.15465280413627625,
6.9924999999999997,-0.16376416385173798,
6.9950000000000001,-0.17321209609508514,
6.9974999999999996,-0.1828523576259613,
7,-0.20218095183372498,73.94366455078125
7.0025000000000004,-0.21146059036254883,
7.0049999999999999,-0.22023539245128632,
7.0075000000000003,-0.22828897833824158,
7.0099999999999998,-0.24187187850475311,
7.0125000000000002,-0.24720887839794159,
7.0149999999999997,-0.2515842616558075,
7.0175000000000001,-0.25504609942436218,
7.0199999999999996,-0.25939744710922241,
7.0225,-0.26043117046356201,
7.0250000000000004,-0.26079177856445312,
7.0274999999999999,-0.26045522093772888,
7.0300000000000002,-0.25757035613059998,
7.0324999999999998,-0.25482973456382751,
7.0350000000000001,-0.25107941031455994,
7.0374999999999996,-0.24610301852226257,
7.04,-0.23191909492015839,
7.0425000000000004,-0.22242307662963867,
7.0449999999999999,-0.21126827597618103,
7.0475000000000003,-0.1984306275844574,
7.0499999999999998,-0.16842803359031677,
7.0525000000000002,-0.15171985328197479,
7.0549999999999997,-0.13436257839202881,
7.0575000000000001,-0.11666874587535858,
7.0599999999999996,-0.081882081925868988,
7.0625,-0.065414309501647949,
7.0650000000000004,-0.049860082566738129,
7.0674999999999999,-0.035387676209211349,
7.0700000000000003,-0.0098806619644165039,
7.0724999999999998,0.0012020270805805922,
7.0750000000000002,0.011275013908743858,
7.0774999999999997,0.02045850083231926,
7.0800000000000001,0.036637783050537109,
7.0824999999999996,0.0438259057700634,
7.085,0.050533216446638107,
7.0875000000000004,0.056783758103847504,
7.0899999999999999,0.067986652255058289,
7.0925000000000002,0.072818800806999207,
7.0949999999999998,0.077073976397514343,
7.0975000000000001,0.080680057406425476,
7.0999999999999996,0.085728570818901062,
7.1025,0.087219081819057465,
7.1050000000000004,0.08810858428478241,
7.1074999999999999,0.088541314005851746,
7.1100000000000003,0.08873363584280014,
7.1124999999999998,0.088901922106742859,
7.1150000000000002,0.089286565780639648,
7.1174999999999997,0.090055868029594421,
7.1200000000000001,0.092772446572780609,
7.1224999999999996,0.094647608697414398,
7.125,0.096667014062404633,
7.1275000000000004,0.098686419427394867,
7.1299999999999999,0.10212421417236328,
7.1325000000000003,0.10327816009521484,
7.1349999999999998,0.10395129770040512,
7.1375000000000002,0.10421574115753174,
7.1399999999999997,0.10371088981628418,
7.1425000000000001,0.10320603847503662,
7.1449999999999996,0.10265310853719711,
7.1475,0.10217230021953583,
7.1500000000000004,0.1015472412109375,
7.1524999999999999,0.10140299797058105,
7.1550000000000002,0.10130684077739716,
7.1574999999999998,0.10118663311004639,
7.1600000000000001,0.1007058247923851,
7.1624999999999996,0.10029713809490204,
7.165,0.099768243730068207,
7.1675000000000004,0.099167227745056152,
7.1699999999999999,0.097700759768486023,
7.1725000000000003,0.096883378922939301,
7.1749999999999998,0.095993876457214355,
7.1775000000000002,0.095008216798305511,
7.1799999999999997,0.092868611216545105,
7.1825000000000001,0.091714665293693542,
7.1849999999999996,0.090608797967433929,
7.1875,0.089551016688346863,
7.1900000000000004,0.087916254997253418,
7.1924999999999999,0.087435446679592133,
7.1950000000000003,0.087171003222465515,
7.1974999999999998,0.087146960198879242,
7.2000000000000002,0.087459489703178406,
7.2024999999999997,0.087651811540126801,
7.2050000000000001,0.087747976183891296,
7.2074999999999996,0.08769989013671875,
7.21,0.086858473718166351,
7.2125000000000004,0.086041092872619629,
7.2149999999999999,0.085007354617118835,
7.2175000000000002,0.083733201026916504,
7.2199999999999998,0.080800257623195648,
7.2225000000000001,0.07921358197927475,
7.2249999999999996,0.077626906335353851,
7.2275,0.076064273715019226,
7.2300000000000004,0.073035165667533875,
7.2324999999999999,0.071616768836975098,
7.2350000000000003,0.07031857967376709,
7.2374999999999998,0.069140598177909851,
7.2400000000000002,0.067433714866638184,
7.2424999999999997,0.067000985145568848,
7.2450000000000001,0.066904827952384949,
7.2474999999999996,0.067121192812919617,
7.25,0.068347260355949402,
7.2525000000000004,0.069164633750915527,
7.2549999999999999,0.0699339359998703,
7.2575000000000003,0.070534944534301758,
7.2599999999999998,0.070679187774658203,
7.2625000000000002,0.070078179240226746,
7.2649999999999997,0.069020390510559082,
7.2675000000000001,0.067553922533988953,
7.2699999999999996,0.063923798501491547,
7.2725,0.062144797295331955,
7.2750000000000004,0.060582160949707031,
7.2774999999999999,0.059476297348737717,
7.2800000000000002,0.058995485305786133,
7.2824999999999998,0.059692662209272385,
7.2850000000000001,0.060990851372480392,
7.2874999999999996,0.062697730958461761,
7.29,0.066688463091850281,
7.2925000000000004,0.068539582192897797,
7.2949999999999999,0.070030093193054199,
7.2975000000000003,0.07101576030254364,
7.2999999999999998,0.071280203759670258,
7.3025000000000002,0.070558987557888031,
7.3049999999999997,0.069380998611450195,
7.3075000000000001,0.06786644458770752,
7.3099999999999996,0.064380571246147156,
7.3125,0.062625609338283539,
7.3150000000000004,0.061014890670776367,
7.3174999999999999,0.059620540589094162,
7.3200000000000003,0.057745378464460373,
7.3224999999999998,0.057360731065273285,
7.3250000000000002,0.057360731065273285,
7.3274999999999997,0.057793460786342621,
7.3300000000000001,0.059716701507568359,
7.3324999999999996,0.06103893369436264,
7.335,0.062481366097927094,
7.3375000000000004,0.063899755477905273,
7.3399999999999999,0.066159568727016449,
7.3425000000000002,0.066832706332206726,
7.3449999999999998,0.067121192812919617,
7.3475000000000001,0.067025028169155121,
7.3499999999999996,0.065823003649711609,
7.3525,0.064861379563808441,
7.3550000000000004,0.063707433640956879,
7.3574999999999999,0.062505409121513367,
7.3600000000000003,0.060197513550519943,
7.3624999999999998,0.059283971786499023,
7.3650000000000002,0.058562755584716797,
7.3674999999999997,0.058154068887233734,
7.3700000000000001,0.058250229805707932,
7.3724999999999996,0.058779120445251465,
7.375,0.059572458267211914,
7.3775000000000004,0.060582160949707031,
7.3799999999999999,0.062817931175231934,
7.3825000000000003,0.063851676881313324,
7.3849999999999998,0.064693093299865723,
7.3875000000000002,0.065246030688285828,
7.3899999999999997,0.065270066261291504,
7.3925000000000001,0.064669057726860046,
7.3949999999999996,0.063731476664543152,
7.3975,0.062505409121513367,
7.4000000000000004,0.059644579887390137,
7.4024999999999999,0.058322351425886154,
7.4050000000000002,0.05721648782491684,
7.4074999999999998,0.05647122859954834,
7.4100000000000001,0.056158702820539474,
7.4124999999999996,0.056567393243312836,
7.415,0.057240527123212814,
7.4175000000000004,0.058081947267055511,
7.4199999999999999,0.059764783829450607,
7.4225000000000003,0.060413878411054611,
7.4249999999999998,0.060846608132123947,
7.4275000000000002,0.06108701229095459,
7.4299999999999997,0.061014890670776367,
7.4325000000000001,0.060822568833827972,
7.4349999999999996,0.060654282569885254,
7.4375,0.060510039329528809,
7.4400000000000004,0.060437917709350586,
7.4424999999999999,0.060534082353115082,
7.4450000000000003,0.060654282569885254,
7.4474999999999998,0.060798525810241699,
7.4500000000000002,0.060894690454006195,
7.4524999999999997,0.060822568833827972,
7.4550000000000001,0.060606203973293304,
7.4574999999999996,0.060293674468994141,
7.46,0.059428215026855469,
7.4625000000000004,0.058971446007490158,
7.4649999999999999,0.058514676988124847,
7.4675000000000002,0.058154068887233734,
7.4699999999999998,0.057745378464460373,
7.4725000000000001,0.057769417762756348,
7.4749999999999996,0.057937704026699066,
7.4775,0.058226190507411957,
7.4800000000000004,0.059187810868024826,
7.4824999999999999,0.059716701507568359,
7.4850000000000003,0.060221552848815918,
7.4874999999999998,0.060606203973293304,
7.4900000000000002,0.060654282569885254,
7.4924999999999997,0.060149431228637695,
7.4950000000000001,0.059187810868024826,
7.4974999999999996,0.057769417762756348,
7.5,0.053610406816005707,
7.5025000000000004,0.051014028489589691,
7.5049999999999999,0.04827340692281723,
7.5075000000000003,0.045532785356044769,
7.5099999999999998,0.040604472160339355,
7.5125000000000002,0.038729310035705566,
7.5149999999999997,0.037383042275905609,
7.5175000000000001,0.036637783050537109,
7.5199999999999996,0.036950312554836273,
7.5225,0.037935972213745117,
7.5250000000000004,0.039282243698835373,
7.5274999999999999,0.040892958641052246,
7.5300000000000002,0.043898027390241623,
7.5324999999999998,0.044835608452558517,
7.5350000000000001,0.045051973313093185,
7.5374999999999996,0.044378839433193207,
7.54,0.039763055741786957,
7.5425000000000004,0.035724245011806488,
7.5449999999999999,0.030651688575744629,
7.5475000000000003,0.024737715721130371,
7.5499999999999998,0.011443297378718853,
7.5525000000000002,0.0048081083223223686,
7.5549999999999997,-0.0013222297420725226,
7.5575000000000001,-0.0065390272065997124,
7.5599999999999996,-0.012981891632080078,
7.5625,-0.013799270614981651,
7.5650000000000004,-0.012885729782283306,
7.5674999999999999,-0.01031339168548584,
7.5700000000000003,-0.00086545944213867188,
7.5724999999999998,0.0054331622086465359,
7.5750000000000002,0.012332797050476074,
7.5774999999999997,0.019496878609061241,
7.5800000000000001,0.033440392464399338,
7.5824999999999996,0.039859216660261154,
7.585,0.045773189514875412,
7.5875000000000004,0.051182311028242111,
7.5899999999999999,0.060582160949707031,
7.5925000000000002,0.064645014703273773,
7.5949999999999998,0.068275138735771179,
7.5975000000000001,0.07135232537984848,
7.5999999999999996,0.075174771249294281,
7.6025,0.075487300753593445,
7.6050000000000004,0.074477598071098328,
7.6074999999999999,0.07209758460521698,
7.6100000000000003,0.063851676881313324,
7.6124999999999998,0.058947406709194183,
7.6150000000000002,0.054572027176618576,
7.6174999999999997,0.051831405609846115,
7.6200000000000001,0.055870216339826584,
7.6224999999999996,0.064813300967216492,
7.625,0.079309746623039246,
7.6275000000000004,0.1246742457151413,
7.6299999999999999,0.15378734469413757,
7.6325000000000003,0.18479964137077332,
7.6349999999999998,0.21506667137145996,
7.6375000000000002,0.2414151132106781,
7.6399999999999997,0.26778757572174072,
7.6425000000000001,0.26045522093772888,
7.6449999999999996,0.23492416739463806,
7.6475,0.18867015838623047,
7.6500000000000004,0.029137134552001953,
7.6524999999999999,-0.083036027848720551,
7.6550000000000002,-0.21323959529399872,
7.6574999999999998,-0.50646209716796875,
7.6600000000000001,-0.65491241216659546,
7.6624999999999996,-0.79314553737640381,
7.665,-0.91212213039398193,
7.6675000000000004,-1.0034281015396118,
7.6699999999999999,-1.0774730443954468,
7.6725000000000003,-1.0535286664962769,
7.6749999999999998,-0.98943650722503662,
7.6775000000000002,-0.88952404260635376,
7.6799999999999997,-0.61238467693328857,
7.6825000000000001,-0.45453450083732605,
7.6849999999999996,-0.29762190580368042,
7.6875,-0.15109479427337646,
7.6900000000000004,0.082555219531059265,
7.6924999999999999,0.16188900172710419,
7.6950000000000003,0.2154032438993454,
7.6974999999999998,0.2558634877204895,
7.7000000000000002,0.25160831212997437,
7.7024999999999997,0.23764073848724365,
7.7050000000000001,0.21857659518718719,
7.7074999999999996,0.17859718203544617,
7.71,0.16167263686656952,
7.7125000000000004,0.14765700697898865,
7.7149999999999999,0.13630986213684082,
7.7175000000000002,0.11900067329406738,
7.7199999999999998,0.11176447570323944,
7.7225000000000001,0.10493695735931396,
7.7249999999999996,0.098518133163452148,
7.7275,0.087387368083000183,
7.7300000000000004,0.083060070872306824,
7.7324999999999999,0.079718433320522308,
7.7350000000000003,0.077170133590698242,
7.7374999999999998,0.073443852365016937,
7.7400000000000002,0.071496568620204926,
7.7424999999999997,0.069068476557731628,
7.7450000000000001,0.066039368510246277,
7.7474999999999996,0.058394473046064377,
7.75,0.05430757999420166,
7.7525000000000004,0.050509177148342133,
7.7549999999999999,0.047335825860500336,
7.7575000000000003,0.043849945068359375,
7.7599999999999998,0.043609540909528732,
