Data Set 1:Time(s),Data Set 1:EKG(mV),Data Set 1:Heart Rate(bpm)
0,0,40.885860443115234
0.0040000000000000001,0,
0.0080000000000000002,0,
0.012,0,
0.016,0,
0.02,0,
0.024,0,
0.028000000000000001,0,
0.032000000000000001,0,
0.035999999999999997,0,
0.040000000000000001,0,
0.043999999999999997,0,
0.048000000000000001,0,
0.051999999999999998,0,
0.056000000000000001,0,
0.059999999999999998,0,
0.064000000000000001,0,
0.068000000000000005,0,
0.071999999999999995,0,
0.075999999999999998,0,
0.080000000000000002,0,
0.084000000000000005,0,
0.087999999999999995,0,
0.091999999999999998,0,
0.096000000000000002,0,
0.10000000000000001,0,
0.104,0,
0.108,0,
0.112,0,
0.11600000000000001,0,
0.12,0,
0.124,0,
0.128,0.12138068675994873,
0.13200000000000001,0.095825597643852234,
0.13600000000000001,0.08736332505941391,
0.14000000000000001,0.092219516634941101,
0.14399999999999999,0.10344644635915756,
0.14799999999999999,0.11462529748678207,
0.152,0.12188553810119629,
0.156,0.12371262162923813,
0.16,0.12087583541870117,
0.16400000000000001,0.11529843509197235,
0.16800000000000001,0.10859112441539764,
0.17199999999999999,0.10176360607147217,
0.17599999999999999,0.09551306813955307,
0.17999999999999999,0.090704962611198425,
0.184,0.08878171443939209,
0.188,0.091330014169216156,
0.192,0.099311470985412598,
0.19600000000000001,0.11231740564107895,
0.20000000000000001,0.12828032672405243,
0.20399999999999999,0.14385859668254852,
0.20799999999999999,0.15520572662353516,
0.21199999999999999,0.15929262340068817,
0.216,0.15472492575645447,
0.22,0.14244019985198975,
0.224,0.12546758353710175,
0.22800000000000001,0.10832667350769043,
0.23200000000000001,0.095921754837036133,
0.23599999999999999,0.092459917068481445,
0.23999999999999999,0.10046541690826416,
0.24399999999999999,0.1200103759765625,
0.248,0.14871478080749512,
0.252,0.18196284770965576,
0.25600000000000001,0.21403293311595917,
0.26000000000000001,0.239371657371521,
0.26400000000000001,0.25396427512168884,
0.26800000000000002,0.25658470392227173,
0.27200000000000002,0.24934849143028259,
0.27600000000000002,0.23737630248069763,
0.28000000000000003,0.22754371166229248,
0.28399999999999997,0.22650997340679169,
0.28799999999999998,0.23848216235637665,
0.29199999999999998,0.26326796412467957,
0.29599999999999999,0.29524189233779907,
0.29999999999999999,0.3231048583984375,
0.30399999999999999,0.33137482404708862,
0.308,0.30298292636871338,
0.312,0.22372126579284668,
0.316,0.087435446679592133,
0.32000000000000001,-0.099022984504699707,
0.32400000000000001,-0.31351268291473389,
0.32800000000000001,-0.5207902193069458,
0.33200000000000002,-0.67974627017974854,
0.33600000000000002,-0.7543681263923645,
0.34000000000000002,-0.72503864765167236,
0.34399999999999997,-0.59586882591247559,
0.34799999999999998,-0.39467355608940125,
0.35199999999999998,-0.16499023139476776,
0.35599999999999998,0.046830974519252777,
0.35999999999999999,0.20496964454650879,
0.36399999999999999,0.29271763563156128,
0.36799999999999999,0.31358480453491211,
0.372,0.28581798076629639,
0.376,0.23319324851036072,
0.38,0.17664989829063416,
0.38400000000000001,0.12912175059318542,
0.38800000000000001,0.095272660255432129,
0.39200000000000002,0.074068903923034668,
0.39600000000000002,0.062529444694519043,
0.40000000000000002,0.058081947267055511,
0.40400000000000003,0.059283971786499023,
0.40799999999999997,0.064765214920043945,
0.41199999999999998,0.072241827845573425,
0.41599999999999998,0.078540444374084473,
0.41999999999999998,0.080535814166069031,
0.42399999999999999,0.076905690133571625,
0.42799999999999999,0.069092512130737305,
0.432,0.061062972992658615,
0.436,0.057721339166164398,
0.44,0.062553487718105316,
0.44400000000000001,0.075823865830898285,
0.44800000000000001,0.094118714332580566,
0.45200000000000001,0.11188467592000961,
0.45600000000000002,0.12359242141246796,
0.46000000000000002,0.1260685920715332,
0.46400000000000002,0.11931320279836655,
0.46800000000000003,0.10582645982503891,
0.47199999999999998,0.088998079299926758,
0.47599999999999998,0.071376368403434753,
0.47999999999999998,0.053922932595014572,
0.48399999999999999,0.036253135651350021,
0.48799999999999999,0.017669796943664551,
0.49199999999999999,-0.0018751621246337891,
0.496,-0.021323960274457932,
0.5,-0.038897596299648285,
0.504,-0.052985351532697678,
0.50800000000000001,-0.063034296035766602,
0.51200000000000001,-0.06964544951915741,
0.51600000000000001,-0.074357390403747559,
0.52000000000000002,-0.078973174095153809,
0.52400000000000002,-0.085007354617118835,
0.52800000000000002,-0.093493662774562836,
0.53200000000000003,-0.10503312200307846,
0.53600000000000003,-0.11969785392284393,
0.54000000000000004,-0.13712725043296814,
0.54400000000000004,-0.15631160140037537,
0.54800000000000004,-0.17551998794078827,
0.55200000000000005,-0.19246856868267059,
0.55600000000000005,-0.20465712249279022,
0.56000000000000005,-0.21006624400615692,
0.56399999999999995,-0.20744583010673523,
0.56799999999999995,-0.19669970870018005,
0.57199999999999995,-0.17864525318145752,
0.57599999999999996,-0.1547008752822876,
0.57999999999999996,-0.12666961550712585,
0.58399999999999996,-0.096618935465812683,
0.58799999999999997,-0.06678462028503418,
0.59199999999999997,-0.03937840461730957,
0.59599999999999997,-0.0161312036216259,
0.59999999999999998,0.002067486522719264,
0.60399999999999998,0.01538594625890255,
0.60799999999999998,0.024954080581665039,
0.61199999999999999,0.032262407243251801,
0.61599999999999999,0.038681231439113617,
0.62,0.044955812394618988,
0.624,0.051302514970302582,
0.628,0.057480931282043457,
0.63200000000000001,0.063322782516479492,
0.63600000000000001,0.068731904029846191,
0.64000000000000001,0.073876582086086273,
0.64400000000000002,0.078732773661613464,
0.64800000000000002,0.083060070872306824,
0.65200000000000002,0.086377665400505066,
0.65600000000000003,0.0883970707654953,
0.66000000000000003,0.089358687400817871,
0.66400000000000003,0.090103946626186371,
0.66800000000000004,0.091906987130641937,
0.67200000000000004,0.095993876457214355,
0.67600000000000005,0.10298967361450195,
0.68000000000000005,0.11265397071838379,
0.68400000000000005,0.12388090789318085,
0.68799999999999994,0.13503572344779968,
0.69199999999999995,0.14448365569114685,
0.69599999999999995,0.15116691589355469,
0.69999999999999996,0.15472492575645447,
0.70399999999999996,0.15561442077159882,
0.70799999999999996,0.15479704737663269,
0.71199999999999997,0.15330652892589569,
0.71599999999999997,0.15212854743003845,
0.71999999999999997,0.15186409652233124,
0.72399999999999998,0.15280167758464813,
0.72799999999999998,0.15477299690246582,
0.73199999999999998,0.15739342570304871,
0.73599999999999999,0.16025424003601074,
0.73999999999999999,0.16304294764995575,
0.74399999999999999,0.16566336154937744,
0.748,0.16823570430278778,
0.752,0.17085611820220947,
0.75600000000000001,0.1736207902431488,
0.76000000000000001,0.17643353343009949,
0.76400000000000001,0.17910203337669373,
0.76800000000000002,0.18119356036186218,
0.77200000000000002,0.18241962790489197,
0.77600000000000002,0.18270811438560486,
0.78000000000000003,0.18227538466453552,
0.78400000000000003,0.1814579963684082,
0.78800000000000003,0.18059253692626953,
0.79200000000000004,0.17977516353130341,
0.79600000000000004,0.17898182570934296,
0.80000000000000004,0.17811636626720428,
0.80400000000000005,0.17725090682506561,
0.80800000000000005,0.17657777667045593,
0.81200000000000006,0.17638544738292694,
0.81599999999999995,0.17681817710399628,
0.81999999999999995,0.1776355504989624,
0.82399999999999995,0.17821252346038818,
0.82799999999999996,0.1777317225933075,
0.83199999999999996,0.17556807398796082,
0.83599999999999997,0.17164945602416992,
0.83999999999999997,0.1667211502790451,
0.84399999999999997,0.16191303730010986,
0.84799999999999998,0.15857140719890594,
0.85199999999999998,0.15746554732322693,
0.85599999999999998,0.15866756439208984,
0.85999999999999999,0.16133606433868408,
0.86399999999999999,0.16400456428527832,
0.86799999999999999,0.16482195258140564,
0.872,0.1622496098279953,
0.876,0.15568654239177704,
0.88,0.14563760161399841,
0.88400000000000001,0.13395389914512634,
0.88800000000000001,0.12325584888458252,
0.89200000000000002,0.11623601615428925,
0.89600000000000002,0.11486570537090302,
0.90000000000000002,0.11989017575979233,
0.90400000000000003,0.13046801090240479,
0.90800000000000003,0.14467597007751465,
0.91200000000000003,0.16013404726982117,
0.91600000000000004,0.1746545284986496,
0.92000000000000004,0.18674692511558533,
0.92400000000000004,0.19549767673015594,
0.92800000000000005,0.20040194690227509,
0.93200000000000005,0.20117124915122986,
0.93600000000000005,0.19804596900939941,
0.93999999999999995,0.19242048263549805,
0.94399999999999995,0.18744409084320068,
0.94799999999999995,0.18792490661144257,
0.95199999999999996,0.19929608702659607,
0.95599999999999996,0.22571663558483124,
0.95999999999999996,0.26740294694900513,
0.96399999999999997,0.31853717565536499,
0.96799999999999997,0.36640188097953796,
0.97199999999999998,0.39267820119857788,
0.97599999999999998,0.37726819515228271,
0.97999999999999998,0.30408880114555359,
0.98399999999999999,0.16717791557312012,
0.98799999999999999,-0.024329027161002159,
0.99199999999999999,-0.24473270773887634,
0.996,-0.4553278386592865,
1,-0.61293762922286987,107.14286041259766
1.004,-0.68140506744384766,
1.008,-0.64267575740814209,
1.012,-0.50295215845108032,
1.016,-0.29168388247489929,
1.02,-0.053009390830993652,
1.024,0.16710579395294189,
1.028,0.33361059427261353,
1.032,0.43032568693161011,
1.036,0.46076101064682007,
1.04,0.44275462627410889,
1.044,0.39952975511550903,
1.048,0.35159289836883545,
1.052,0.31180581450462341,
1.056,0.28476020693778992,
1.0600000000000001,0.26908576488494873,
1.0640000000000001,0.26086390018463135,
1.0680000000000001,0.25627216696739197,
1.0720000000000001,0.25285840034484863,
1.0760000000000001,0.24963697791099548,
1.0800000000000001,0.24639150500297546,
1.0840000000000001,0.24314603209495544,
1.0880000000000001,0.23973226547241211,
1.0920000000000001,0.23586174845695496,
1.0960000000000001,0.23127000033855438,
1.1000000000000001,0.22581279277801514,
1.1040000000000001,0.21949014067649841,
1.1080000000000001,0.21242222189903259,
1.1120000000000001,0.20487348735332489,
1.1160000000000001,0.19713243842124939,
1.1200000000000001,0.18951158225536346,
1.1240000000000001,0.18222729861736298,
1.1279999999999999,0.1753997802734375,
1.1319999999999999,0.16898095607757568,
1.1359999999999999,0.16280254721641541,
1.1399999999999999,0.15652796626091003,
1.1439999999999999,0.14979660511016846,
1.1479999999999999,0.1421036422252655,
1.1519999999999999,0.1330643892288208,
1.1559999999999999,0.12248655408620834,
1.1599999999999999,0.11051436513662338,
1.1639999999999999,0.097508430480957031,
1.1679999999999999,0.083901487290859222,
1.1719999999999999,0.070102214813232422,
1.1759999999999999,0.05642315000295639,
1.1799999999999999,0.042960446327924728,
1.1839999999999999,0.029738148674368858,
1.1879999999999999,0.016780298203229904,
1.1919999999999999,0.0041349730454385281,
1.196,-0.0078131761401891708,
1.2,-0.018583338707685471,
1.204,-0.027550458908081055,
1.208,-0.034185647964477539,
1.212,-0.038152337074279785,
1.216,-0.039306282997131348,
1.22,-0.037647485733032227,
1.224,-0.033199988305568695,
1.228,-0.02598782442510128,
1.232,-0.015938878059387207,
1.236,-0.0028848648071289062,
1.24,0.013174216262996197,
1.244,0.031949877738952637,
1.248,0.052720904350280762,
1.252,0.074453555047512054,
1.256,0.095993876457214355,
1.26,0.1162840947508812,
1.264,0.13460299372673035,
1.268,0.15058994293212891,
1.272,0.16414880752563477,
1.276,0.17537574470043182,
1.28,0.18446306884288788,
1.284,0.19157907366752625,
1.288,0.1968439519405365,
1.292,0.20042598247528076,
1.296,0.20258963108062744,
1.3,0.2036474198102951,
1.304,0.2038397490978241,
1.3080000000000001,0.20345509052276611,
1.3120000000000001,0.20254155993461609,
1.3160000000000001,0.20121932029724121,
1.3200000000000001,0.19956052303314209,
1.3240000000000001,0.19766132533550262,
1.3280000000000001,0.19554576277732849,
1.3320000000000001,0.19326190650463104,
1.3360000000000001,0.19076168537139893,
1.3400000000000001,0.18804511427879333,
1.3440000000000001,0.18516024947166443,
1.3480000000000001,0.18222729861736298,
1.3520000000000001,0.17941455543041229,
1.3560000000000001,0.17701050639152527,
1.3600000000000001,0.17515937983989716,
1.3640000000000001,0.17386119067668915,
1.3680000000000001,0.17282745242118835,
1.3720000000000001,0.17155329883098602,
1.3759999999999999,0.16965410113334656,
1.3799999999999999,0.1669134795665741,
1.3839999999999999,0.16340355575084686,
1.3879999999999999,0.15948495268821716,
1.3919999999999999,0.15568654239177704,
1.3959999999999999,0.15239298343658447,
1.3999999999999999,0.14986872673034668,
1.4039999999999999,0.14811377227306366,
1.4079999999999999,0.1468636691570282,
1.4119999999999999,0.14585396647453308,
1.4159999999999999,0.14489233493804932,
1.4199999999999999,0.14397880434989929,
1.4239999999999999,0.14311334490776062,
1.4279999999999999,0.14236807823181152,
1.4319999999999999,0.1416468620300293,
1.4359999999999999,0.1408054530620575,
1.4399999999999999,0.13979575037956238,
1.444,0.13859371840953827,
1.448,0.13729552924633026,
1.452,0.1361415833234787,
1.456,0.13527612388134003,
1.46,0.13479530811309814,
1.464,0.1345549076795578,
1.468,0.13426642119884491,
1.472,0.13352116942405701,
1.476,0.13200661540031433,
1.48,0.12960255146026611,
1.484,0.12635707855224609,
1.488,0.12251059710979462,
1.492,0.11839966475963593,
1.496,0.11448105424642563,
1.5,0.11123558133840561,
1.504,0.10897576808929443,
1.508,0.10772566497325897,
1.512,0.10700444877147675,
1.516,0.10599474608898163,
1.52,0.10354261100292206,
1.524,0.09871046245098114,
1.528,0.090993449091911316,
1.532,0.080728136003017426,
1.536,0.069284841418266296,
1.54,0.05863487720489502,
1.544,0.050965946167707443,
1.548,0.047816634178161621,
1.552,0.049860082566738129,
1.556,0.056567393243312836,
1.5600000000000001,0.066664420068264008,
1.5640000000000001,0.078372165560722351,
1.5680000000000001,0.090055868029594421,
1.5720000000000001,0.10034521669149399,
1.5760000000000001,0.10825455188751221,
1.5800000000000001,0.11306266486644745,
1.5840000000000001,0.11424064636230469,
1.5880000000000001,0.11186063289642334,
1.5920000000000001,0.10707657039165497,
1.5960000000000001,0.10282139480113983,
1.6000000000000001,0.10375897586345673,
1.6040000000000001,0.11513014882802963,
1.6080000000000001,0.14082948863506317,
1.6120000000000001,0.18073678016662598,
1.6160000000000001,0.2284572571516037,
1.6200000000000001,0.27057629823684692,
1.6240000000000001,0.28795760869979858,
1.6279999999999999,0.2598782479763031,
1.6319999999999999,0.17023107409477234,
1.6359999999999999,0.014328162185847759,
1.6399999999999999,-0.1959063708782196,
1.6439999999999999,-0.43083053827285767,
1.6479999999999999,-0.64777237176895142,
1.6519999999999999,-0.80086255073547363,
1.6559999999999999,-0.85387194156646729,
1.6599999999999999,-0.79160690307617188,
1.6639999999999999,-0.62570315599441528,
1.6679999999999999,-0.39190888404846191,
1.6719999999999999,-0.13945917785167694,
1.6759999999999999,0.083372592926025391,
1.6799999999999999,0.24261713027954102,
1.6839999999999999,0.32570123672485352,
1.6879999999999999,0.34082275629043579,
1.6919999999999999,0.3096662163734436,
1.696,0.25749823451042175,
1.7,0.20492157340049744,
1.704,0.16357183456420898,
1.708,0.13635794818401337,
1.712,0.1206594705581665,
1.716,0.11198084056377411,
1.72,0.10657171905040741,
1.724,0.10222037881612778,
1.728,0.098037324845790863,
1.732,0.093758106231689453,
1.736,0.089334651827812195,
1.74,0.084718868136405945,
1.744,0.080054998397827148,
1.748,0.075463257730007172,
1.752,0.071087881922721863,
1.756,0.066952906548976898,
1.76,0.06286601722240448,
1.764,0.058538716286420822,
1.768,0.053658485412597656,
1.772,0.047960877418518066,
1.776,0.041397809982299805,
1.78,0.034065447747707367,
1.784,0.026059946045279503,
1.788,0.017525553703308105,
1.792,0.0085103511810302734,
1.796,-0.00084141892148181796,
1.8,-0.010409554466605186,
1.804,-0.019977688789367676,
1.8080000000000001,-0.029497742652893066,
1.8120000000000001,-0.03892163559794426,
1.8160000000000001,-0.048393607139587402,
1.8200000000000001,-0.058154068887233734,
1.8240000000000001,-0.068515539169311523,
1.8280000000000001,-0.079814597964286804,
1.8320000000000001,-0.092171430587768555,
1.8360000000000001,-0.10532160848379135,
1.8400000000000001,-0.11859198659658432,
1.8440000000000001,-0.13099691271781921,
1.8480000000000001,-0.14152666926383972,
1.8520000000000001,-0.14926771819591522,
1.8560000000000001,-0.1537632942199707,
1.8600000000000001,-0.15498936176300049,
1.8640000000000001,-0.15330652892589569,
1.8680000000000001,-0.14933983981609344,
1.8720000000000001,-0.14354607462882996,
1.8759999999999999,-0.1360454261302948,
1.8799999999999999,-0.12657344341278076,
1.8839999999999999,-0.11464934051036835,
1.8879999999999999,-0.099888443946838379,
1.8919999999999999,-0.082266733050346375,
1.8959999999999999,-0.062216918915510178,
1.8999999999999999,-0.040580432862043381,
1.9039999999999999,-0.018463134765625,
1.9079999999999999,0.0030291080474853516,
1.9119999999999999,0.023006796836853027,
1.9159999999999999,0.040917001664638519,
1.9199999999999999,0.056519310921430588,
1.9239999999999999,0.069813728332519531,
1.9279999999999999,0.08092045783996582,
1.9319999999999999,0.089983746409416199,
1.9359999999999999,0.097292065620422363,
1.9399999999999999,0.10315795987844467,
1.944,0.10784586519002914,
1.948,0.11150002479553223,
1.952,0.11414448916912079,
1.956,0.11570712178945541,
1.96,0.11613985151052475,
1.964,0.1154426783323288,
1.968,0.1137598380446434,
1.972,0.11137982457876205,
1.976,0.10878344625234604,
1.98,0.10654767602682114,
1.984,0.10512928664684296,
1.988,0.10474463552236557,
1.992,0.10539373010396957,
1.996,0.10673999786376953,
2,0.10818243026733398,90.909088134765625
2.004,0.10902385413646698,
2.008,0.10863920301198959,
2.012,0.10669191926717758,
2.016,0.10335028171539307,
2.02,0.099263392388820648,
2.024,0.095272660255432129,
2.028,0.092147395014762878,
2.032,0.090248189866542816,
2.036,0.089502930641174316,
2.04,0.08947889506816864,
2.044,0.089551016688346863,
2.048,0.089238487184047699,
2.052,0.088300906121730804,
2.056,0.086978673934936523,
2.0600000000000001,0.085608363151550293,
2.0640000000000001,0.084550581872463226,
2.0680000000000001,0.083901487290859222,
2.0720000000000001,0.083540879189968109,
2.0760000000000001,0.083132192492485046,
2.0800000000000001,0.08241097629070282,
2.0840000000000001,0.08132915198802948,
2.0880000000000001,0.07995884120464325,
2.0920000000000001,0.078684687614440918,
2.0960000000000001,0.077891349792480469,
2.1000000000000001,0.077891349792480469,
2.1040000000000001,0.078732773661613464,
2.1080000000000001,0.080079041421413422,
2.1120000000000001,0.081281065940856934,
2.1160000000000001,0.08166571706533432,
2.1200000000000001,0.080752179026603699,
2.1240000000000001,0.078444287180900574,
2.1280000000000001,0.075078606605529785,
2.1320000000000001,0.071472525596618652,
2.1360000000000001,0.068635746836662292,
2.1400000000000001,0.067361593246459961,
2.1440000000000001,0.06786644458770752,
2.1480000000000001,0.069573327898979187,
2.1520000000000001,0.071135960519313812,
2.1560000000000001,0.070847474038600922,
2.1600000000000001,0.067217350006103516,
2.1640000000000001,0.059500336647033691,
2.1680000000000001,0.048177242279052734,
2.1720000000000002,0.035003028810024261,
2.1760000000000002,0.022622149437665939,
2.1800000000000002,0.013799270614981651,
2.1840000000000002,0.010649959556758404,
2.1880000000000002,0.014015635475516319,
2.1920000000000002,0.023247202858328819,
2.1960000000000002,0.036565661430358887,
2.2000000000000002,0.051615040749311447,
2.2040000000000002,0.0661114901304245,
2.2080000000000002,0.078107714653015137,
2.2120000000000002,0.08628150075674057,
2.2160000000000002,0.089839503169059753,
2.2200000000000002,0.088637471199035645,
2.2240000000000002,0.083396635949611664,
2.2280000000000002,0.076328717172145844,
2.2320000000000002,0.071256160736083984,
2.2360000000000002,0.073299609124660492,
2.2400000000000002,0.087555646896362305,
2.2440000000000002,0.11686106771230698,
2.2480000000000002,0.1591724157333374,
2.2519999999999998,0.20578703284263611,
2.2559999999999998,0.24134299159049988,
2.2599999999999998,0.24612705409526825,
2.2639999999999998,0.20100295543670654,
2.2679999999999998,0.093926392495632172,
2.2719999999999998,-0.073900625109672546,
2.2759999999999998,-0.28437554836273193,
2.2799999999999998,-0.50364935398101807,
2.2839999999999998,-0.68885767459869385,
2.2879999999999998,-0.79901140928268433,
2.2919999999999998,-0.80701690912246704,
2.2959999999999998,-0.70835453271865845,
2.2999999999999998,-0.52343469858169556,
2.3039999999999998,-0.29178005456924438,
2.3079999999999998,-0.060413878411054611,
2.3119999999999998,0.12972275912761688,
2.3159999999999998,0.25410851836204529,
2.3199999999999998,0.30848821997642517,
2.3239999999999998,0.30574759840965271,
2.3279999999999998,0.26785969734191895,
2.3319999999999999,0.21715819835662842,
2.3359999999999999,0.16994258761405945,
2.3399999999999999,0.13412217795848846,
2.3439999999999999,0.11056244373321533,
2.3479999999999999,0.096282362937927246,
2.3519999999999999,0.087531611323356628,
2.3559999999999999,0.081449352204799652,
2.3599999999999999,0.076617203652858734,
2.3639999999999999,0.072289906442165375,
2.3679999999999999,0.068130895495414734,
2.3719999999999999,0.063659355044364929,
2.3759999999999999,0.058562755584716797,
2.3799999999999999,0.052793025970458984,
2.3839999999999999,0.046566527336835861,
2.3879999999999999,0.040267907083034515,
2.3919999999999999,0.034377973526716232,
2.3959999999999999,0.029185216873884201,
2.3999999999999999,0.024809837341308594,
2.4039999999999999,0.02108355425298214,
2.4079999999999999,0.017573636025190353,
2.4119999999999999,0.013727148994803429,
2.4159999999999999,0.0090632839128375053,
2.4199999999999999,0.0031973919831216335,
2.4239999999999999,-0.0039666891098022461,
2.4279999999999999,-0.012356838211417198,
2.4319999999999999,-0.02170860767364502,
2.4359999999999999,-0.031637351959943771,
2.4399999999999999,-0.041830539703369141,
2.444,-0.052119892090559006,
2.448,-0.062529444694519043,
2.452,-0.07317940890789032,
2.456,-0.08411785215139389,
2.46,-0.095248624682426453,
2.464,-0.10642747581005096,
2.468,-0.11734187602996826,
2.472,-0.12767931818962097,
2.476,-0.13715128600597382,
2.48,-0.1454693078994751,
2.484,-0.15253722667694092,
2.488,-0.15823483467102051,
2.492,-0.16236981749534607,
2.496,-0.16467770934104919,
2.5,-0.16474983096122742,
2.504,-0.16222557425498962,
2.508,-0.15669624507427216,
2.512,-0.14801761507987976,
2.516,-0.13616561889648438,
2.52,-0.12138068675994873,
2.524,-0.10407149791717529,
2.528,-0.084983311593532562,
2.532,-0.064861379563808441,
2.536,-0.044475000351667404,
2.54,-0.024425189942121506,
2.544,-0.0052648782730102539,
2.548,0.012669364921748638,
2.552,0.029113095253705978,
2.556,0.043898027390241623,
2.5600000000000001,0.056879919022321701,
2.5640000000000001,0.067914530634880066,
2.5680000000000001,0.076929733157157898,
2.5720000000000001,0.083997651934623718,
2.5760000000000001,0.089382730424404144,
2.5800000000000001,0.093445584177970886,
2.5840000000000001,0.09654681384563446,
2.5880000000000001,0.098878741264343262,
2.5920000000000001,0.10051350295543671,
2.5960000000000001,0.10137896239757538,
2.6000000000000001,0.10140299797058105,
2.6040000000000001,0.10075390338897705,
2.6080000000000001,0.099720165133476257,
2.6120000000000001,0.098662376403808594,
2.6160000000000001,0.097989246249198914,
2.6200000000000001,0.097772881388664246,
2.6240000000000001,0.097796916961669922,
2.6280000000000001,0.097556516528129578,
2.6320000000000001,0.096618935465812683,
2.6360000000000001,0.094815894961357117,
2.6400000000000001,0.092435881495475769,
2.6440000000000001,0.089911624789237976,
2.6480000000000001,0.087796054780483246,
2.6520000000000001,0.08632957935333252,
2.6560000000000001,0.085464119911193848,
2.6600000000000001,0.084839068353176117,
2.6640000000000001,0.083973608911037445,
2.6680000000000001,0.08241097629070282,
2.6720000000000002,0.080054998397827148,
2.6760000000000002,0.077073976397514343,
2.6800000000000002,0.073876582086086273,
2.6840000000000002,0.070943638682365417,
2.6880000000000002,0.068611703813076019,
2.6920000000000002,0.067121192812919617,
2.6960000000000002,0.066616341471672058,
2.7000000000000002,0.067025028169155121,
2.7040000000000002,0.06815493106842041,
2.7080000000000002,0.069693528115749359,
2.7120000000000002,0.071304246783256531,
2.7160000000000002,0.072722636163234711,
2.7200000000000002,0.073732338845729828,
2.7240000000000002,0.074357390403747559,
2.7280000000000002,0.07454971969127655,
2.7320000000000002,0.074429512023925781,
2.7360000000000002,0.074044868350028992,
2.7400000000000002,0.073371730744838715,
2.7440000000000002,0.072313949465751648,
2.7480000000000002,0.07072727382183075,
2.7519999999999998,0.068539582192897797,
2.7559999999999998,0.06599128246307373,
2.7599999999999998,0.063418947160243988,
2.7639999999999998,0.061351459473371506,
2.7679999999999998,0.060101352632045746,
2.7719999999999998,0.05966862291097641,
2.7759999999999998,0.059548418968915939,
2.7799999999999998,0.058731041848659515,
2.7839999999999998,0.0561346635222435,
2.7879999999999998,0.050917863845825195,
2.7919999999999998,0.043056607246398926,
2.7959999999999998,0.033536553382873535,
2.7999999999999998,0.024184783920645714,
2.8039999999999998,0.017140906304121017,
2.8079999999999998,0.014232000336050987,
2.8119999999999998,0.016515851020812988,
2.8159999999999998,0.023896297439932823,
2.8199999999999998,0.035339593887329102,
2.8239999999999998,0.049018662422895432,
2.8279999999999998,0.062817931175231934,
2.8319999999999999,0.074742041528224945,
2.8359999999999999,0.083108149468898773,
2.8399999999999999,0.086882516741752625,
2.8439999999999999,0.085920892655849457,
2.8479999999999999,0.08132915198802948,
2.8519999999999999,0.075847908854484558,
2.8559999999999999,0.073756381869316101,
2.8599999999999999,0.080151163041591644,
2.8639999999999999,0.09909510612487793,
2.8679999999999999,0.13167004287242889,
2.8719999999999999,0.17359673976898193,
2.8759999999999999,0.21420121192932129,
2.8799999999999999,0.23703972995281219,
2.8839999999999999,0.22307217121124268,
2.8879999999999999,0.15607118606567383,
2.8919999999999999,0.029016932472586632,
2.8959999999999999,-0.15071015059947968,
2.8999999999999999,-0.35933396220207214,
2.9039999999999999,-0.56009650230407715,
2.9079999999999999,-0.7113836407661438,
2.9119999999999999,-0.7781442403793335,
2.9159999999999999,-0.7425161600112915,
2.9199999999999999,-0.60998064279556274,
2.9239999999999999,-0.40844878554344177,
2.9279999999999999,-0.18023192882537842,
2.9319999999999999,0.030531486496329308,
2.9359999999999999,0.18992027640342712,
2.9399999999999999,0.28209170699119568,
2.944,0.31014701724052429,
2.948,0.29101073741912842,
2.952,0.2470165491104126,
2.956,0.19799789786338806,
2.96,0.15635967254638672,
2.964,0.12642920017242432,
2.968,0.10678808391094208,
2.972,0.09368598461151123,
2.976,0.083901487290859222,
2.98,0.075823865830898285,
2.984,0.069212719798088074,
2.988,0.06423632800579071,
2.992,0.060702364891767502,
2.996,0.057937704026699066,
3,0.055028796195983887,101.20481872558594
3.004,0.051230393350124359,
3.008,0.046278040856122971,
3.012,0.04046022891998291,
3.016,0.034353934228420258,
3.02,0.028536122292280197,
3.024,0.023223161697387695,
3.028,0.018439095467329025,
3.032,0.01384735107421875,
3.036,0.0091834869235754013,
3.04,0.0041349730454385281,
3.044,-0.0015385946026071906,
3.048,-0.0080776214599609375,
3.052,-0.015746554359793663,
3.056,-0.02461751364171505,
3.0600000000000001,-0.034714542329311371,
3.0640000000000001,-0.045845311135053635,
3.0680000000000001,-0.05767325684428215,
3.0720000000000001,-0.069741606712341309,
3.0760000000000001,-0.081569552421569824,
3.0800000000000001,-0.092868611216545105,
3.0840000000000001,-0.10351856797933578,
3.0880000000000001,-0.11359155178070068,
3.0920000000000001,-0.12311160564422607,
3.0960000000000001,-0.13207873702049255,
3.1000000000000001,-0.14030060172080994,
3.1040000000000001,-0.1475127637386322,
3.1080000000000001,-0.15345077216625214,
3.1120000000000001,-0.15787422657012939,
3.1160000000000001,-0.16063889861106873,
3.1200000000000001,-0.16152839362621307,
3.1240000000000001,-0.16030232608318329,
3.1280000000000001,-0.15657603740692139,
3.1320000000000001,-0.14989277720451355,
3.1360000000000001,-0.13972362875938416,
3.1400000000000001,-0.12592434883117676,
3.1440000000000001,-0.10866324603557587,
3.1480000000000001,-0.088709592819213867,
3.1520000000000001,-0.067121192812919617,
3.1560000000000001,-0.045100055634975433,
3.1600000000000001,-0.023752054199576378,
3.1640000000000001,-0.0039186081849038601,
3.1680000000000001,0.013895432464778423,
3.1720000000000002,0.029497742652893066,
3.1760000000000002,0.042984485626220703,
3.1800000000000002,0.054547987878322601,
3.1840000000000002,0.064500771462917328,
3.1880000000000002,0.073059201240539551,
3.1920000000000002,0.080487728118896484,
3.1960000000000002,0.086954638361930847,
3.2000000000000002,0.092508003115653992,
3.2040000000000002,0.097099743783473969,
3.2080000000000002,0.10058562457561493,
3.2120000000000002,0.10286947339773178,
3.2160000000000002,0.10390321910381317,
3.2200000000000002,0.10390321910381317,
3.2240000000000002,0.1031339168548584,
3.2280000000000002,0.10205209255218506,
3.2320000000000002,0.10099431127309799,
3.2360000000000002,0.10020097345113754,
3.2400000000000002,0.099744200706481934,
3.2440000000000002,0.09938359260559082,
3.2480000000000002,0.098806619644165039,
3.2519999999999998,0.097724795341491699,
3.2559999999999998,0.096114084124565125,
3.2599999999999998,0.09414275735616684,
3.2639999999999998,0.092171430587768555,
3.2679999999999998,0.090512633323669434,
3.2719999999999998,0.089262530207633972,
3.2759999999999998,0.088252827525138855,
3.2799999999999998,0.087050795555114746,
3.2839999999999998,0.085223719477653503,
3.2879999999999998,0.082483097910881042,
3.2919999999999998,0.078997217118740082,
3.2959999999999998,0.075343057513237,
3.2999999999999998,0.072289906442165375,
3.3039999999999998,0.070414744317531586,
3.3079999999999998,0.069957971572875977,
3.3119999999999998,0.070679187774658203,
3.3159999999999998,0.071953341364860535,
3.3199999999999998,0.073107287287712097,
3.3239999999999998,0.073636174201965332,
3.3279999999999998,0.073347687721252441,
3.3319999999999999,0.072530314326286316,
3.3359999999999999,0.07168889045715332,
3.3399999999999999,0.071328282356262207,
3.3439999999999999,0.071712933480739594,
3.3479999999999999,0.072674557566642761,
3.3519999999999999,0.073804460465908051,
3.3559999999999999,0.07454971969127655,
3.3599999999999999,0.074405476450920105,
3.3639999999999999,0.073107287287712097,
3.3679999999999999,0.070655152201652527,
3.3719999999999999,0.067361593246459961,
3.3759999999999999,0.063827633857727051,
3.3799999999999999,0.060726404190063477,
3.3839999999999999,0.058682959526777267,
3.3879999999999999,0.058081947267055511,
3.3919999999999999,0.058899324387311935,
3.3959999999999999,0.060654282569885254,
3.3999999999999999,0.062385201454162598,
3.4039999999999999,0.062769852578639984,
3.4079999999999999,0.060606203973293304,
3.4119999999999999,0.055197082459926605,
3.4159999999999999,0.046710770577192307,
3.4199999999999999,0.036397378891706467,
3.4239999999999999,0.026252269744873047,
3.4279999999999999,0.018487175926566124,
3.4319999999999999,0.015073418617248535,
3.4359999999999999,0.017044743523001671,
3.4399999999999999,0.024353068321943283,
3.444,0.035820405930280685,
3.448,0.04952351376414299,
3.452,0.063274703919887543,
3.456,0.075102649629116058,
3.46,0.083372592926025391,
3.464,0.087122917175292969,
3.468,0.085993014276027679,
3.472,0.080776214599609375,
3.476,0.073636174201965332,
3.48,0.068251095712184906,
3.484,0.069429084658622742,
3.488,0.081930160522460938,
3.492,0.10856708139181137,
3.496,0.14808973670005798,
3.5,0.19330999255180359,
3.504,0.23083727061748505,
3.508,0.24264118075370789,
3.512,0.2100902795791626,
3.516,0.11972188949584961,
3.52,-0.030795931816101074,
3.524,-0.22843322157859802,
3.528,-0.44438940286636353,
3.532,-0.63885331153869629,
3.536,-0.77045124769210815,
3.54,-0.80776214599609375,
3.544,-0.73948705196380615,
3.548,-0.57863175868988037,
3.552,-0.3593820333480835,
3.556,-0.12707829475402832,
3.5600000000000001,0.075054571032524109,
3.5640000000000001,0.21735052764415741,
3.5680000000000001,0.28978466987609863,
3.5720000000000001,0.30079525709152222,
3.5760000000000001,0.2705041766166687,
3.5800000000000001,0.22187015414237976,
3.5840000000000001,0.17318806052207947,
3.5880000000000001,0.13467511534690857,
3.5920000000000001,0.10880748927593231,
3.5960000000000001,0.093301340937614441,
3.6000000000000001,0.084310173988342285,
3.6040000000000001,0.078684687614440918,
3.6080000000000001,0.074573755264282227,
3.6120000000000001,0.071304246783256531,
3.6160000000000001,0.06856362521648407,
3.6200000000000001,0.06599128246307373,
3.6240000000000001,0.063178539276123047,
3.6280000000000001,0.05966862291097641,
3.6320000000000001,0.055341325700283051,
3.6360000000000001,0.050268769264221191,
3.6400000000000001,0.044811569154262543,
3.6440000000000001,0.03921012207865715,
3.6480000000000001,0.033752918243408203,
3.6520000000000001,0.028584202751517296,
3.6560000000000001,0.023679932579398155,
3.6600000000000001,0.018967986106872559,
3.6640000000000001,0.014159878715872765,
3.6680000000000001,0.008822878822684288,
3.6720000000000002,0.0025723378639668226,
3.6760000000000002,-0.004832148551940918,
3.6800000000000002,-0.013414621353149414,
3.6840000000000002,-0.02291063591837883,
3.6880000000000002,-0.032983623445034027,
3.6920000000000002,-0.043200850486755371,
3.6960000000000002,-0.053273838013410568,
3.7000000000000002,-0.063178539276123047,
3.7040000000000002,-0.073011122643947601,
3.7080000000000002,-0.083011984825134277,
3.7120000000000002,-0.093373462557792664,
3.7160000000000002,-0.10392725467681885,
3.7200000000000002,-0.11440893262624741,
3.7240000000000002,-0.12433767318725586,
3.7280000000000002,-0.13320863246917725,
3.7320000000000002,-0.1406131237745285,
3.7360000000000002,-0.1461184024810791,
3.7400000000000002,-0.14943599700927734,
3.7440000000000002,-0.15042166411876678,
3.7480000000000002,-0.14900326728820801,
3.7519999999999998,-0.14515678584575653,
3.7559999999999998,-0.13897836208343506,
3.7599999999999998,-0.13049206137657166,
3.7639999999999998,-0.11974593251943588,
3.7679999999999998,-0.10683616250753403,
3.7719999999999998,-0.091762743890285492,
3.7759999999999998,-0.0745977982878685,
3.7799999999999998,-0.055533647537231445,
3.7839999999999998,-0.035099189728498459,
3.7879999999999998,-0.013967554084956646,
3.7919999999999998,0.0068515539169311523,
3.7959999999999998,0.026396512985229492,
3.7999999999999998,0.043777823448181152,
3.8039999999999998,0.058394473046064377,
3.8079999999999998,0.06998201459646225,
3.8119999999999998,0.078732773661613464,
3.8159999999999998,0.085055433213710785,
3.8199999999999998,0.089575052261352539,
3.8239999999999998,0.092940732836723328,
3.8279999999999998,0.095681354403495789,
3.8319999999999999,0.098205611109733582,
3.8359999999999999,0.10082602500915527,
3.8399999999999999,0.10354261100292206,
3.8439999999999999,0.10613898932933807,
3.8479999999999999,0.10815839469432831,
3.8519999999999999,0.10916809737682343,
3.8559999999999999,0.10885556787252426,
3.8599999999999999,0.10729293525218964,
3.8639999999999999,0.10479271411895752,
3.8679999999999999,0.10190784931182861,
3.8719999999999999,0.099215313792228699,
3.8759999999999999,0.097099743783473969,
3.8799999999999999,0.095657311379909515,
3.8839999999999999,0.094671651721000671,
3.8879999999999999,0.093734070658683777,
3.8919999999999999,0.092508003115653992,
3.8959999999999999,0.090801119804382324,
3.8999999999999999,0.088661514222621918,
3.9039999999999999,0.086305543780326843,
3.9079999999999999,0.083949565887451172,
3.9119999999999999,0.081930160522460938,
3.9159999999999999,0.080511771142482758,
3.9199999999999999,0.079814597964286804,
3.9239999999999999,0.079790554940700531,
3.9279999999999999,0.080175206065177917,
3.9319999999999999,0.080511771142482758,
3.9359999999999999,0.080367527902126312,
3.9399999999999999,0.079357825219631195,
3.944,0.077434584498405457,
3.948,0.074814163148403168,
3.952,0.07209758460521698,
3.956,0.069957971572875977,
3.96,0.068996354937553406,
3.964,0.069380998611450195,
3.968,0.070919595658779144,
3.972,0.073107287287712097,
3.976,0.075294971466064453,
3.98,0.076929733157157898,
3.984,0.077578827738761902,
3.988,0.077001854777336121,
3.992,0.075126692652702332,
3.996,0.072145663201808929,
4,0.068467460572719574,100.41841125488281
4.0039999999999996,0.064669057726860046,
4.008,0.061471663415431976,
4.0119999999999996,0.059596501290798187,
4.016,0.059596501290798187,
4.0199999999999996,0.061447620391845703,
4.024,0.064332485198974609,
4.0279999999999996,0.066904827952384949,
4.032,0.067361593246459961,
4.0359999999999996,0.06423632800579071,
4.04,0.056903958320617676,
4.0439999999999996,0.045917432755231857,
4.048,0.033031702041625977,
4.0519999999999996,0.020867189392447472,
4.056,0.01214047335088253,
4.0599999999999996,0.0088709592819213867,
4.0640000000000001,0.011779865249991417,
4.0679999999999996,0.020145973190665245,
4.0720000000000001,0.032238364219665527,
4.0759999999999996,0.045917432755231857,
4.0800000000000001,0.059187810868024826,
4.0839999999999996,0.070486865937709808,
4.0880000000000001,0.078804895281791687,
4.0919999999999996,0.083420678973197937,
4.0960000000000001,0.084093809127807617,
4.0999999999999996,0.081160865724086761,
4.1040000000000001,0.076112352311611176,
4.1079999999999997,0.072073541581630707,
4.1120000000000001,0.073636174201965332,
4.1159999999999997,0.085728570818901062,
4.1200000000000001,0.11159618943929672,
4.1239999999999997,0.15025338530540466,
4.1280000000000001,0.19456009566783905,
4.1319999999999997,0.23083727061748505,
4.1360000000000001,0.24050156772136688,
4.1399999999999997,0.20444075763225555,
4.1440000000000001,0.10904788970947266,
4.1479999999999997,-0.047576230019330978,
4.1520000000000001,-0.25134384632110596,
4.1559999999999997,-0.47206005454063416,
4.1600000000000001,-0.66871166229248047,
4.1639999999999997,-0.7993239164352417,
4.1680000000000001,-0.83288455009460449,
4.1719999999999997,-0.7591281533241272,
4.1760000000000002,-0.59247910976409912,
4.1799999999999997,-0.36851745843887329,
4.1840000000000002,-0.13335287570953369,
4.1879999999999997,0.069549284875392914,
4.1920000000000002,0.21109998226165771,
4.1959999999999997,0.28201958537101746,
4.2000000000000002,0.29144346714019775,
4.2039999999999997,0.2598782479763031,
4.2080000000000002,0.21030664443969727,
4.2119999999999997,0.16107162833213806,
4.2160000000000002,0.12253463268280029,
4.2199999999999998,0.097412273287773132,
4.2240000000000002,0.083540879189968109,
4.2279999999999998,0.076977811753749847,
4.2320000000000002,0.074141025543212891,
4.2359999999999998,0.072674557566642761,
4.2400000000000002,0.071280203759670258,
4.2439999999999998,0.069260798394680023,
4.2480000000000002,0.066375933587551117,
4.2519999999999998,0.062673687934875488,
4.2560000000000002,0.058370433747768402,
4.2599999999999998,0.053850810974836349,
4.2640000000000002,0.049259066581726074,
4.2679999999999998,0.044595204293727875,
4.2720000000000002,0.039618812501430511,
4.2759999999999998,0.034161608666181564,
4.2800000000000002,0.028103392571210861,
4.2839999999999998,0.021492242813110352,
4.2880000000000003,0.014544527046382427,
4.2919999999999998,0.0074766082689166069,
4.2960000000000003,0.00052889192011207342,
4.2999999999999998,-0.0062505407258868217,
4.3040000000000003,-0.012957851402461529,
4.3079999999999998,-0.01983344554901123,
4.3120000000000003,-0.027141770347952843,
4.3159999999999998,-0.035099189728498459,
4.3200000000000003,-0.043970149010419846,
4.3239999999999998,-0.053874850273132324,
4.3280000000000003,-0.064861379563808441,
4.3319999999999999,-0.076857611536979675,
4.3360000000000003,-0.089502930641174316,
4.3399999999999999,-0.10224442183971405,
4.3440000000000003,-0.11440893262624741,
4.3479999999999999,-0.1253233402967453,
4.3520000000000003,-0.13438662886619568,
4.3559999999999999,-0.14131030440330505,
4.3600000000000003,-0.14607033133506775,
4.3639999999999999,-0.14905135333538055,
4.3680000000000003,-0.15073418617248535,
4.3719999999999999,-0.15155157446861267,
4.3760000000000003,-0.15147945284843445,
4.3799999999999999,-0.15020529925823212,
4.3840000000000003,-0.14703194797039032,
4.3879999999999999,-0.14121413230895996,
4.3920000000000003,-0.13207873702049255,
4.3959999999999999,-0.11928915977478027,
4.4000000000000004,-0.10291755199432373,
4.4039999999999999,-0.083564922213554382,
4.4080000000000004,-0.062192879617214203,
4.4119999999999999,-0.039931338280439377,
4.4160000000000004,-0.018030405044555664,
4.4199999999999999,0.002476175781339407,
4.4240000000000004,0.020819108933210373,
4.4279999999999999,0.036661826074123383,
4.4320000000000004,0.050100486725568771,
4.4359999999999999,0.061543785035610199,
4.4400000000000004,0.071448490023612976,
4.444,0.080079041421413422,
4.4480000000000004,0.087387368083000183,
4.452,0.093205176293849945,
4.4560000000000004,0.097268030047416687,
4.46,0.099599957466125488,
4.4640000000000004,0.10048945993185043,
4.468,0.10046541690826416,
4.4720000000000004,0.10012885183095932,
4.476,0.099912486970424652,
4.4800000000000004,0.099864408373832703,
4.484,0.09979228675365448,
4.4880000000000004,0.099287435412406921,
4.492,0.098181568086147308,
4.4960000000000004,0.09659489244222641,
4.5,0.094888016581535339,
4.5039999999999996,0.093493662774562836,
4.508,0.092604160308837891,
4.5119999999999996,0.092099308967590332,
4.516,0.091594457626342773,
4.5199999999999996,0.090608797967433929,
4.524,0.08878171443939209,
4.5279999999999996,0.086185336112976074,
4.532,0.083252392709255219,
4.5359999999999996,0.08063197135925293,
4.54,0.078901052474975586,
4.5439999999999996,0.078300043940544128,
4.548,0.078684687614440918,
4.5519999999999996,0.079622268676757812,
4.556,0.080680057406425476,
4.5599999999999996,0.081473395228385925,
4.5640000000000001,0.081906124949455261,
4.5679999999999996,0.081978246569633484,
4.5720000000000001,0.081834003329277039,
4.5759999999999996,0.081641674041748047,
4.5800000000000001,0.08132915198802948,
4.5839999999999996,0.080800257623195648,
4.5880000000000001,0.079934798181056976,
4.5919999999999996,0.078732773661613464,
4.5960000000000001,0.077458620071411133,
4.5999999999999996,0.076448917388916016,
4.6040000000000001,0.076040230691432953,
4.6079999999999997,0.076424881815910339,
4.6120000000000001,0.077458620071411133,
4.6159999999999997,0.078804895281791687,
4.6200000000000001,0.079862676560878754,
4.6239999999999997,0.080079041421413422,
4.6280000000000001,0.079045295715332031,
4.6319999999999997,0.076665282249450684,
4.6360000000000001,0.073203444480895996,
4.6399999999999997,0.069140598177909851,
4.6440000000000001,0.065149866044521332,
4.6479999999999997,0.06183227151632309,
4.6520000000000001,0.059740744531154633,
4.6559999999999997,0.059139728546142578,
4.6600000000000001,0.059860944747924805,
4.6639999999999997,0.06120721623301506,
4.6680000000000001,0.061976514756679535,
4.6719999999999997,0.060822568833827972,
4.6760000000000002,0.05647122859954834,
4.6799999999999997,0.04844168946146965,
4.6840000000000002,0.037214756011962891,
4.6879999999999997,0.024497311562299728,
4.6920000000000002,0.012813608162105083,
4.6959999999999997,0.0048802299425005913,
4.7000000000000002,0.0028367838822305202,
4.7039999999999997,0.0074285268783569336,
4.7080000000000002,0.017958283424377441,
4.7119999999999997,0.032526850700378418,
4.7160000000000002,0.048537850379943848,
4.7199999999999998,0.063346825540065765,
4.7240000000000002,0.074838206171989441,
4.7279999999999998,0.081521473824977875,
4.7320000000000002,0.082771584391593933,
4.7359999999999998,0.078901052474975586,
4.7400000000000002,0.071472525596618652,
4.7439999999999998,0.063683390617370605,
4.7480000000000002,0.060173474252223969,
4.7519999999999998,0.066424012184143066,
4.7560000000000002,0.086978673934936523,
4.7599999999999998,0.12296736240386963,
4.7640000000000002,0.16996662318706512,
4.7679999999999998,0.21665334701538086,
4.7720000000000002,0.24567028880119324,
4.7759999999999998,0.2368474006652832,
4.7800000000000002,0.17265915870666504,
4.7839999999999998,0.044715404510498047,
4.7880000000000003,-0.14063715934753418,
4.7919999999999998,-0.36000710725784302,
4.7960000000000003,-0.57584309577941895,
4.7999999999999998,-0.74443936347961426,
4.8040000000000003,-0.82764369249343872,
4.8079999999999998,-0.8042522668838501,
4.8120000000000003,-0.67739033699035645,
4.8159999999999998,-0.47415158152580261,
4.8200000000000003,-0.23802539706230164,
4.8239999999999998,-0.015938878059387207,
4.8280000000000003,0.15494129061698914,
4.8319999999999999,0.25603175163269043,
4.8360000000000003,0.28911155462265015,
4.8399999999999999,0.27139365673065186,
4.8440000000000003,0.22650997340679169,
4.8479999999999999,0.1761450469493866,
4.8520000000000003,0.13421833515167236,
4.8559999999999999,0.10594666004180908,
4.8600000000000003,0.08981546014547348,
4.8639999999999999,0.081184908747673035,
4.8680000000000003,0.075559422373771667,
4.8719999999999999,0.070174336433410645,
4.8760000000000003,0.06423632800579071,
4.8799999999999999,0.058130025863647461,
4.8840000000000003,0.052576661109924316,
4.8879999999999999,0.048032999038696289,
4.8920000000000003,0.044450961053371429,
4.8959999999999999,0.041445892304182053,
4.9000000000000004,0.038464866578578949,
4.9039999999999999,0.035003028810024261,
4.9080000000000004,0.030699770897626877,
4.9119999999999999,0.025507014244794846,
4.9160000000000004,0.019593041390180588,
4.9199999999999999,0.01322229765355587,
4.9240000000000004,0.0066832704469561577,
4.9279999999999999,0.00012020270514767617,
4.9320000000000004,-0.0063467025756835938,
4.9359999999999999,-0.012717446312308311,
4.9400000000000004,-0.019088190048933029,
4.944,-0.025675296783447266,
4.9480000000000004,-0.032743215560913086,
4.952,-0.040484271943569183,
4.9560000000000004,-0.049042701721191406,
4.96,-0.058514676988124847,
4.9640000000000004,-0.06885211169719696,
4.968,-0.080030962824821472,
4.9720000000000004,-0.091762743890285492,
4.976,-0.10373493283987045,
4.9800000000000004,-0.11549075692892075,
4.984,-0.12666961550712585,
4.9880000000000004,-0.13686279952526093,
4.992,-0.14580588042736053,
4.9960000000000004,-0.15321037173271179,
5,-0.15895605087280273,103.44828033447266
5.0039999999999996,-0.16297082602977753,
5.008,-0.16520659625530243,
5.0119999999999996,-0.16559123992919922,
5.016,-0.16402861475944519,
5.0199999999999996,-0.16039848327636719,
5.024,-0.15448451042175293,
5.0279999999999996,-0.14607033133506775,
5.032,-0.13489148020744324,
5.0359999999999996,-0.12073159217834473,
5.04,-0.1036868542432785,
5.0439999999999996,-0.084189973771572113,
5.048,-0.063058339059352875,
5.0519999999999996,-0.04137377068400383,
5.056,-0.02029021643102169,
5.0599999999999996,-0.00081737840082496405,
5.0640000000000001,0.016419690102338791,
5.0679999999999996,0.031180581077933311,
5.0720000000000001,0.043777823448181152,
5.0759999999999996,0.054620109498500824,
5.0800000000000001,0.064068041741847992,
5.0839999999999996,0.072289906442165375,
5.0880000000000001,0.079189538955688477,
5.0919999999999996,0.0845746248960495,
5.0960000000000001,0.088373027741909027,
5.0999999999999996,0.090632840991020203,
5.1040000000000001,0.091594457626342773,
5.1079999999999997,0.091618500649929047,
5.1120000000000001,0.091065570712089539,
5.1159999999999997,0.090176068246364594,
5.1200000000000001,0.08907020092010498,
5.1239999999999997,0.087772011756896973,
5.1280000000000001,0.08628150075674057,
5.1319999999999997,0.084670782089233398,
5.1360000000000001,0.083108149468898773,
5.1399999999999997,0.08171379566192627,
5.1440000000000001,0.08058389276266098,
5.1479999999999997,0.079622268676757812,
5.1520000000000001,0.078756809234619141,
5.1559999999999997,0.077867314219474792,
5.1600000000000001,0.076809525489807129,
5.1639999999999997,0.075463257730007172,
5.1680000000000001,0.073804460465908051,
5.1719999999999997,0.071857176721096039,
5.1760000000000002,0.069765649735927582,
5.1799999999999997,0.067674122750759125,
5.1840000000000002,0.065823003649711609,
5.1879999999999997,0.064476728439331055,
5.1920000000000002,0.063899755477905273,
5.1959999999999997,0.064164206385612488,
5.2000000000000002,0.065101787447929382,
5.2039999999999997,0.066231690347194672,
5.2080000000000002,0.066976949572563171,
5.2119999999999997,0.066832706332206726,
5.2160000000000002,0.065678760409355164,
5.2199999999999998,0.063755512237548828,
5.2240000000000002,0.061688028275966644,
5.2279999999999998,0.060245595872402191,
5.2320000000000002,0.059957109391689301,
5.2359999999999998,0.061062972992658615,
5.2400000000000002,0.063274703919887543,
5.2439999999999998,0.065895125269889832,
5.2480000000000002,0.068203017115592957,
5.2519999999999998,0.069525241851806641,
5.2560000000000002,0.069525241851806641,
5.2599999999999998,0.068227052688598633,
5.2640000000000002,0.065798960626125336,
5.2679999999999998,0.062553487718105316,
5.2720000000000002,0.05892336368560791,
5.2759999999999998,0.055317282676696777,
5.2800000000000002,0.052095852792263031,
5.2839999999999998,0.049595635384321213,
5.2880000000000003,0.04815320298075676,
5.2919999999999998,0.047888755798339844,
5.2960000000000003,0.048658054322004318,
5.2999999999999998,0.049860082566738129,
5.3040000000000003,0.05043705552816391,
5.3079999999999998,0.049018662422895432,
5.3120000000000003,0.044426918029785156,
5.3159999999999998,0.036132931709289551,
5.3200000000000003,0.024737715721130371,
5.3239999999999998,0.012044310569763184,
5.3280000000000003,0.00067313516046851873,
5.3319999999999999,-0.006611148826777935,
5.3360000000000003,-0.0076929731294512749,
5.3399999999999999,-0.0018992027034983039,
5.3440000000000003,0.0098566217347979546,
5.3479999999999999,0.0253627710044384,
5.3520000000000003,0.041830539703369141,
5.3559999999999999,0.056615471839904785,
5.3600000000000003,0.067577958106994629,
5.3639999999999999,0.073395773768424988,
5.3680000000000003,0.073564052581787109,
5.3719999999999999,0.068804025650024414,
5.3760000000000003,0.061159133911132812,
5.3799999999999999,0.05430757999420166,
5.3840000000000003,0.05322575569152832,
5.3879999999999999,0.063130460679531097,
5.3920000000000003,0.087627768516540527,
5.3959999999999999,0.12626092135906219,
5.4000000000000004,0.17256300151348114,
5.4039999999999999,0.21335980296134949,
5.4080000000000004,0.23040454089641571,
5.4119999999999999,0.20441672205924988,
5.4160000000000004,0.12094795703887939,
5.4199999999999999,-0.023391446098685265,
5.4240000000000004,-0.21660527586936951,
5.4279999999999999,-0.43059012293815613,
5.4320000000000004,-0.62582337856292725,
5.4359999999999999,-0.76066672801971436,
5.4400000000000004,-0.80305022001266479,
5.444,-0.74052077531814575,
5.4480000000000004,-0.58490633964538574,
5.452,-0.36935886740684509,
5.4560000000000004,-0.13878604769706726,
5.46,0.063274703919887543,
5.4640000000000004,0.20641207695007324,
5.468,0.27963957190513611,
5.4720000000000004,0.29062610864639282,
5.476,0.25915703177452087,
5.4800000000000004,0.20823916792869568,
5.484,0.15662412345409393,
5.4880000000000004,0.11503398418426514,
5.492,0.086497865617275238,
5.4960000000000004,0.068996354937553406,
5.5,0.058875285089015961,
5.5039999999999996,0.052961312234401703,
5.508,0.049451392143964767,
5.5119999999999996,0.047504108399152756,
5.516,0.046590566635131836,
5.5199999999999996,0.046085715293884277,
5.524,0.045148134231567383,
5.5279999999999996,0.043080650269985199,
5.532,0.039522647857666016,
5.5359999999999996,0.03447413444519043,
5.54,0.028319757431745529,
5.5439999999999996,0.021516283974051476,
5.548,0.014544527046382427,
5.5519999999999996,0.0078131761401891708,
5.556,0.001466472982428968,
5.5599999999999996,-0.004567702766507864,
5.5640000000000001,-0.010553797706961632,
5.5679999999999996,-0.016804337501525879,
5.5720000000000001,-0.023487608879804611,
5.5759999999999996,-0.030675729736685753,
5.5800000000000001,-0.038392744958400726,
5.5839999999999996,-0.046614609658718109,
5.5880000000000001,-0.055341325700283051,
5.5919999999999996,-0.0646209716796875,
5.5960000000000001,-0.074357390403747559,
5.5999999999999996,-0.084406338632106781,
5.6040000000000001,-0.094599530100822449,
5.6079999999999997,-0.10479271411895752,
5.6120000000000001,-0.11486570537090302,
5.6159999999999997,-0.12491464614868164,
5.6200000000000001,-0.13496360182762146,
5.6239999999999997,-0.14501254260540009,
5.6280000000000001,-0.15467683970928192,
5.6319999999999997,-0.16330739855766296,
5.6360000000000001,-0.17008683085441589,
5.6399999999999997,-0.17426988482475281,
5.6440000000000001,-0.17551998794078827,
5.6479999999999997,-0.17378906905651093,
5.6520000000000001,-0.16926944255828857,
5.6559999999999997,-0.16229769587516785,
5.6600000000000001,-0.15306612849235535,
5.6639999999999997,-0.14159879088401794,
5.6680000000000001,-0.12787163257598877,
5.6719999999999997,-0.11178851127624512,
5.6760000000000002,-0.093589827418327332,
5.6799999999999997,-0.073780417442321777,
5.6840000000000002,-0.053249798715114594,
5.6879999999999997,-0.033079784363508224,
5.6920000000000002,-0.014280080795288086,
5.6959999999999997,0.0023800134658813477,
5.7000000000000002,0.01646777056157589,
5.7039999999999997,0.027935108169913292,
5.7080000000000002,0.037094555795192719,
5.7119999999999997,0.044378839433193207,
5.7160000000000002,0.050268769264221191,
5.7199999999999998,0.05522112175822258,
5.7240000000000002,0.059548418968915939,
5.7279999999999998,0.06353914737701416,
5.7320000000000002,0.067409679293632507,
5.7359999999999998,0.071304246783256531,
5.7400000000000002,0.075198814272880554,
5.7439999999999998,0.078925095498561859,
5.7480000000000002,0.082122489809989929,
5.7519999999999998,0.084550581872463226,
5.7560000000000002,0.086017057299613953,
5.7599999999999998,0.086473822593688965,
5.7640000000000002,0.08594493567943573,
5.7679999999999998,0.084550581872463226,
5.7720000000000002,0.082435011863708496,
5.7759999999999998,0.079742476344108582,
5.7800000000000002,0.076689325273036957,
5.7839999999999998,0.073443852365016937,
5.7880000000000003,0.070294544100761414,
5.7919999999999998,0.067553922533988953,
5.7960000000000003,0.065414309501647949,
5.7999999999999998,0.063851676881313324,
5.8040000000000003,0.062673687934875488,
5.8079999999999998,0.061543785035610199,
5.8120000000000003,0.060197513550519943,
5.8159999999999998,0.058538716286420822,
5.8200000000000003,0.056615471839904785,
5.8239999999999998,0.054668188095092773,
5.8280000000000003,0.053033433854579926,
5.8319999999999999,0.05197564885020256,
5.8360000000000003,0.051591001451015472,
5.8399999999999999,0.05168716236948967,
5.8440000000000003,0.05185544490814209,
5.8479999999999999,0.051639080047607422,
5.8520000000000003,0.050725542008876801,
5.8559999999999999,0.049138866364955902,
5.8600000000000003,0.047263704240322113,
5.8639999999999999,0.045604906976222992,
5.8680000000000003,0.044667325913906097,
5.8719999999999999,0.044715404510498047,
5.8760000000000003,0.045580863952636719,
5.8799999999999999,0.046806931495666504,
5.8840000000000003,0.047672390937805176,
5.8879999999999999,0.047648351639509201,
5.8920000000000003,0.046470366418361664,
5.8959999999999999,0.044306717813014984,
5.9000000000000004,0.041590135544538498,
5.9039999999999999,0.03892163559794426,
5.9080000000000004,0.036974351853132248,
5.9119999999999999,0.036253135651350021,
5.9160000000000004,0.036806069314479828,
5.9199999999999999,0.038200419396162033,
5.9240000000000004,0.039306282997131348,
5.9279999999999999,0.038729310035705566,
5.9320000000000004,0.035243432968854904,
5.9359999999999999,0.028367837890982628,
5.9400000000000004,0.018607378005981445,
5.944,0.0076448917388916016,
5.9480000000000004,-0.0021155676804482937,
5.952,-0.0083661079406738281,
5.9560000000000004,-0.0095440950244665146,
5.96,-0.0052889189682900906,
5.9640000000000004,0.0034137568436563015,
5.968,0.014857053756713867,
5.9720000000000004,0.027045607566833496,
5.976,0.038152337074279785,
5.9800000000000004,0.046710770577192307,
5.984,0.051639080047607422,
5.9880000000000004,0.052456460893154144,
5.992,0.049667757004499435,
5.9960000000000004,0.045316420495510101,
6,0.043152771890163422,95.23809814453125
6.0039999999999996,0.04827340692281723,
6.008,0.065510474145412445,
6.0119999999999996,0.097075700759887695,
6.016,0.14015635848045349,
6.0199999999999996,0.18504004180431366,
6.024,0.21561960875988007,
6.0279999999999996,0.21244625747203827,
6.032,0.15821079909801483,
6.0359999999999996,0.044066309928894043,
6.04,-0.12469828128814697,
6.0439999999999996,-0.32659074664115906,
6.048,-0.52665615081787109,
6.0519999999999996,-0.68407356739044189,
6.056,-0.76311886310577393,
6.0599999999999996,-0.74381434917449951,
6.0640000000000001,-0.62853991985321045,
6.0679999999999996,-0.44179302453994751,
6.0720000000000001,-0.22319237887859344,
6.0759999999999996,-0.01584271714091301,
6.0800000000000001,0.14568567276000977,
6.0839999999999996,0.24341046810150146,
6.0880000000000001,0.27788460254669189,
6.0919999999999996,0.26396512985229492,
6.0960000000000001,0.22290389239788055,
6.0999999999999996,0.17460644245147705,
6.1040000000000001,0.13239125907421112,
6.1079999999999997,0.10166744887828827,
6.1120000000000001,0.081930160522460938,
6.1159999999999997,0.069717571139335632,
6.1200000000000001,0.061399541795253754,
6.1239999999999997,0.054596066474914551,
6.1280000000000001,0.048297446221113205,
6.1319999999999997,0.042311351746320724,
6.1360000000000001,0.036685865372419357,
6.1399999999999997,0.031276743859052658,
6.1440000000000001,0.02598782442510128,
6.1479999999999997,0.020819108933210373,
6.1520000000000001,0.015986960381269455,
6.1559999999999997,0.01168370246887207,
6.1600000000000001,0.0080535812303423882,
6.1639999999999997,0.004784067627042532,
6.1680000000000001,0.0013703107833862305,
6.1719999999999997,-0.0027646622620522976,
6.1760000000000002,-0.0080535812303423882,
6.1799999999999997,-0.01461664866656065,
6.1840000000000002,-0.022189419716596603,
6.1879999999999997,-0.030218958854675293,
6.1920000000000002,-0.03812829777598381,
6.1959999999999997,-0.045628946274518967,
6.2000000000000002,-0.052793025970458984,
6.2039999999999997,-0.060125391930341721,
6.2080000000000002,-0.068227052688598633,
6.2119999999999997,-0.077554784715175629,
6.2160000000000002,-0.088228784501552582,
6.2199999999999998,-0.10003268718719482,
6.2240000000000002,-0.11243760585784912,
6.2279999999999998,-0.1247704029083252,
6.2320000000000002,-0.13633391261100769,
6.2359999999999998,-0.14655113220214844,
6.2400000000000002,-0.15513360500335693,
6.2439999999999998,-0.16191303730010986,
6.2480000000000002,-0.1669134795665741,
6.2519999999999998,-0.17018298804759979,
6.2560000000000002,-0.17181774973869324,
6.2599999999999998,-0.17186582088470459,
6.2640000000000002,-0.17030319571495056,
6.2679999999999998,-0.16703367233276367,
6.2720000000000002,-0.16176879405975342,
6.2759999999999998,-0.15434026718139648,
6.2800000000000002,-0.14455577731132507,
6.2839999999999998,-0.13248741626739502,
6.2880000000000003,-0.11825542151927948,
6.2919999999999998,-0.10214825719594955,
6.2960000000000003,-0.084478460252285004,
6.2999999999999998,-0.06565471738576889,
6.3040000000000003,-0.046254001557826996,
6.3079999999999998,-0.026949446648359299,
6.3120000000000003,-0.0085103511810302734,
6.3159999999999998,0.0084141893312335014,
6.3200000000000003,0.023295283317565918,
6.3239999999999998,0.035892527550458908,
6.3280000000000003,0.046254001557826996,
6.3319999999999999,0.054668188095092773,
6.3360000000000003,0.061471663415431976,
6.3399999999999999,0.066856741905212402,
6.3440000000000003,0.07101576030254364,
6.3479999999999999,0.074020825326442719,
6.3520000000000003,0.076064273715019226,
6.3559999999999999,0.077362462878227234,
6.3600000000000003,0.078155800700187683,
6.3639999999999999,0.078612565994262695,
6.3680000000000003,0.078901052474975586,
6.3719999999999999,0.079093381762504578,
6.3760000000000003,0.0791655033826828,
6.3799999999999999,0.079093381762504578,
6.3840000000000003,0.078708730638027191,
6.3879999999999999,0.077939435839653015,
6.3920000000000003,0.07671336829662323,
6.3959999999999999,0.075078606605529785,
6.4000000000000004,0.073155365884304047,
6.4039999999999999,0.071087881922721863,
6.4080000000000004,0.069092512130737305,
6.4119999999999999,0.067313514649868011,
6.4160000000000004,0.065798960626125336,
6.4199999999999999,0.064452692866325378,
6.4240000000000004,0.063106417655944824,
6.4279999999999999,0.061663985252380371,
6.4320000000000004,0.060101352632045746,
6.4359999999999999,0.058514676988124847,
6.4400000000000004,0.056928001344203949,
6.444,0.055437486618757248,
6.4480000000000004,0.054043136537075043,
6.452,0.05276898667216301,
6.4560000000000004,0.051615040749311447,
6.46,0.050653420388698578,
6.4640000000000004,0.049860082566738129,
6.468,0.04935523122549057,
6.4720000000000004,0.049186944961547852,
6.476,0.04935523122549057,
6.4800000000000004,0.049812000244855881,
6.484,0.050413012504577637,
6.4880000000000004,0.050965946167707443,
6.492,0.051254432648420334,
6.4960000000000004,0.050965946167707443,
6.5,0.049860082566738129,
6.5039999999999996,0.047720473259687424,
6.508,0.044691365212202072,
6.5119999999999996,0.041133366525173187,
6.516,0.037743650376796722,
6.5199999999999996,0.035219393670558929,
6.524,0.034161608666181564,
6.5279999999999996,0.034666460007429123,
6.532,0.036325257271528244,
6.5359999999999996,0.038176380097866058,
6.54,0.038945674896240234,
6.5439999999999996,0.037431120872497559,
6.548,0.032911501824855804,
6.5519999999999996,0.025410851463675499,
6.556,0.015866756439208984,
6.5599999999999996,0.0058178110048174858,
6.5640000000000001,-0.0028608243446797132,
6.5679999999999996,-0.0085103511810302734,
6.5720000000000001,-0.0099047031253576279,
6.5759999999999996,-0.0065871081314980984,
6.5800000000000001,0.001033743261359632,
6.5839999999999996,0.011996230110526085,
6.5880000000000001,0.024857919663190842,
6.5919999999999996,0.03800809383392334,
6.5960000000000001,0.049836039543151855,
6.5999999999999996,0.058803163468837738,
6.6040000000000001,0.063827633857727051,
6.6079999999999997,0.064861379563808441,
6.6120000000000001,0.063322782516479492,
6.6159999999999997,0.062385201454162598,
6.6200000000000001,0.066592298448085785,
6.6239999999999997,0.080511771142482758,
6.6280000000000001,0.10669191926717758,
6.6319999999999997,0.14337778091430664,
6.6360000000000001,0.18278023600578308,
6.6399999999999997,0.21107594668865204,
6.6440000000000001,0.21040281653404236,
6.6479999999999997,0.16352376341819763,
6.6520000000000001,0.059764783829450607,
6.6559999999999997,-0.099359557032585144,
6.6600000000000001,-0.29678046703338623,
6.6639999999999997,-0.50100487470626831,
6.6680000000000001,-0.6722216010093689,
6.6719999999999997,-0.77239853143692017,
6.6760000000000002,-0.77650946378707886,
6.6799999999999997,-0.68073195219039917,
6.6840000000000002,-0.50461095571517944,
6.6879999999999997,-0.2855294942855835,
6.6920000000000002,-0.067842409014701843,
6.6959999999999997,0.10998547077178955,
6.7000000000000002,0.22506754100322723,
6.7039999999999997,0.2737736701965332,
6.7080000000000002,0.26870113611221313,
6.7119999999999997,0.23114979267120361,
6.7160000000000002,0.1823955774307251,
6.7199999999999998,0.1377282589673996,
6.7240000000000002,0.10426382720470428,
6.7279999999999998,0.082290768623352051,
6.7320000000000002,0.068635746836662292,
6.7359999999999998,0.059620540589094162,
6.7400000000000002,0.052720904350280762,
6.7439999999999998,0.046951174736022949,
6.7480000000000002,0.042119026184082031,
6.7519999999999998,0.038320623338222504,
6.7560000000000002,0.035363636910915375,
6.7599999999999998,0.032815337181091309,
6.7640000000000002,0.030243000015616417,
6.7679999999999998,0.027310054749250412,
6.7720000000000002,0.023848216980695724,
6.7759999999999998,0.019761323928833008,
6.7800000000000002,0.014953216537833214,
6.7839999999999998,0.0094238920137286186,
6.7880000000000003,0.0031733512878417969,
6.7919999999999998,-0.0036301217041909695,
6.7960000000000003,-0.010890364646911621,
6.7999999999999998,-0.018511217087507248,
6.8040000000000003,-0.026420554146170616,
6.8079999999999998,-0.034642420709133148,
6.8120000000000003,-0.043032567948102951,
6.8159999999999998,-0.05151887983083725,
6.8200000000000003,-0.060029231011867523,
6.8239999999999998,-0.068587660789489746,
6.8280000000000003,-0.077242255210876465,
6.8319999999999999,-0.086137257516384125,
6.8360000000000003,-0.095344781875610352,
6.8399999999999999,-0.10484080016613007,
6.8440000000000003,-0.11445701122283936,
6.8479999999999999,-0.1239289864897728,
6.8520000000000003,-0.13289611041545868,
6.8559999999999999,-0.14114201068878174,
6.8600000000000003,-0.14859458804130554,
6.8639999999999999,-0.15527784824371338,
6.8680000000000003,-0.16109566390514374,
6.8719999999999999,-0.16580760478973389,
6.8760000000000003,-0.16895692050457001,
6.8799999999999999,-0.17001470923423767,
6.8840000000000003,-0.168500155210495,
6.8879999999999999,-0.16405265033245087,
6.8920000000000003,-0.15657603740692139,
6.8959999999999999,-0.14614245295524597,
6.9000000000000004,-0.13304035365581512,
6.9039999999999999,-0.11763036251068115,
6.9080000000000004,-0.10024905204772949,
6.9119999999999999,-0.081305108964443207,
6.9160000000000004,-0.061399541795253754,
6.9199999999999999,-0.041325688362121582,
6.9240000000000004,-0.021949013695120811,
6.9279999999999999,-0.0040868921205401421,
6.9320000000000004,0.011755824089050293,
6.9359999999999999,0.025410851463675499,
6.9400000000000004,0.036998391151428223,
6.944,0.046855013817548752,
6.9480000000000004,0.055173039436340332,
6.952,0.06212075799703598,
6.9560000000000004,0.067626044154167175,
6.96,0.071616768836975098,
6.9640000000000004,0.074092946946620941,
6.968,0.075294971466064453,
6.9720000000000004,0.075703665614128113,
6.976,0.075823865830898285,
6.9800000000000004,0.075992152094841003,
6.984,0.076328717172145844,
6.9880000000000004,0.076785489916801453,
6.992,0.077194176614284515,
6.9960000000000004,0.077338419854640961,
7,0.077073976397514343,90.225563049316406
7.0039999999999996,0.076232552528381348,
7.008,0.074766084551811218,
7.0119999999999996,0.072626471519470215,
7.016,0.069861814379692078,
7.0199999999999996,0.066640377044677734,
7.024,0.06325066089630127,
7.0279999999999996,0.060173474252223969,
7.032,0.058875285089015961,
7.0359999999999996,0.05647122859954834,
7.04,0.055990420281887054,
7.0439999999999996,0.055966377258300781,
7.048,0.055870216339826584,
7.0519999999999996,0.055341325700283051,
7.056,0.054331623017787933,
7.0599999999999996,0.053129594773054123,
7.0640000000000001,0.052167974412441254,
7.0679999999999996,0.05180736631155014,
7.0720000000000001,0.052095852792263031,
7.0759999999999996,0.052672825753688812,
7.0800000000000001,0.052961312234401703,
7.0839999999999996,0.052360296249389648,
7.0880000000000001,0.050725542008876801,
7.0919999999999996,0.048417650163173676,
7.0960000000000001,0.046205919235944748,
7.0999999999999996,0.044883690774440765,
7.1040000000000001,0.044955812394618988,
7.1079999999999997,0.045532785356044769,
7.1120000000000001,0.048513811081647873,
7.1159999999999997,0.050292812287807465,
7.1200000000000001,0.050701498985290527,
7.1239999999999997,0.049090784043073654,
7.1280000000000001,0.045508742332458496,
7.1319999999999997,0.040796797722578049,
7.1360000000000001,0.036253135651350021,
7.1399999999999997,0.033127866685390472,
7.1440000000000001,0.032262407243251801,
7.1479999999999997,0.03368079662322998,
7.1520000000000001,0.03658970445394516,
7.1559999999999997,0.039522647857666016,
7.1600000000000001,0.040748715400695801,
7.1639999999999997,0.038849513977766037,
7.1680000000000001,0.03322402760386467,
7.1719999999999997,0.024329027161002159,
7.1760000000000002,0.013630986213684082,
7.1799999999999997,0.0031973919831216335,
7.1840000000000002,-0.0048561892472207546,
7.1879999999999997,-0.0088469190523028374,
7.1920000000000002,-0.0079093379899859428,
7.1959999999999997,-0.002259810920804739,
7.2000000000000002,0.007043878547847271,
7.2039999999999997,0.018391013145446777,
7.2080000000000002,0.03014683723449707,
7.2119999999999997,0.040844880044460297,
7.2160000000000002,0.049259066581726074,
7.2199999999999998,0.054331623017787933,
7.2240000000000002,0.055413447320461273,
7.2279999999999998,0.052696865051984787,
7.2320000000000002,0.047696433961391449,
7.2359999999999998,0.043753784149885178,
7.2400000000000002,0.045580863952636719,
7.2439999999999998,0.058250229805707932,
7.2480000000000002,0.084983311593532562,
7.2519999999999998,0.12474636733531952,
7.2560000000000002,0.17039935290813446,
7.2599999999999998,0.20823916792869568,
7.2640000000000002,0.22009114921092987,
7.2679999999999998,0.18727581202983856,
7.2720000000000002,0.096667014062404633,
7.2759999999999998,-0.053634446114301682,
7.2800000000000002,-0.25026202201843262,
7.2839999999999998,-0.464559406042099,
7.2880000000000003,-0.65729242563247681,
7.2919999999999998,-0.78800082206726074,
7.2960000000000003,-0.82617723941802979,
7.2999999999999998,-0.80622357130050659,
7.3040000000000003,-0.60502827167510986,
7.3079999999999998,-0.39181274175643921,
7.3120000000000003,-0.1654229611158371,
7.3159999999999998,0.031997960060834885,
7.3200000000000003,0.1715773344039917,
7.3239999999999998,0.24350664019584656,
7.3280000000000003,0.25603175163269043,
7.3319999999999999,0.22881786525249481,
7.3360000000000003,0.18415054678916931,
7.3399999999999999,0.13974766433238983,
7.3440000000000003,0.10539373010396957,
7.3479999999999999,0.083324514329433441,
7.3520000000000003,0.07106383889913559,
7.3559999999999999,0.064572893083095551,
7.3600000000000003,0.060510039329528809,
7.3639999999999999,0.056903958320617676,
7.3680000000000003,0.053009390830993652,
7.3719999999999999,0.048706136643886566,
7.3760000000000003,0.044114392250776291,
7.3799999999999999,0.039450526237487793,
7.3840000000000003,0.034858785569667816,
7.3879999999999999,0.030507445335388184,
7.3920000000000003,0.02632439136505127,
7.3959999999999999,0.022021135315299034,
7.4000000000000004,0.017188986763358116,
7.4039999999999999,0.011539459228515625,
7.4080000000000004,0.0050965948030352592,
7.4119999999999999,0.0016828378429636359,
7.4160000000000004,-0.0086305541917681694,
7.4199999999999999,-0.01521766185760498,
7.4240000000000004,-0.021516283974051476,
7.4279999999999999,-0.027718743309378624,
7.4320000000000004,-0.034161608666181564,
7.4359999999999999,-0.041037201881408691,
7.4400000000000004,-0.048393607139587402,
7.444,-0.056206785142421722,
7.4480000000000004,-0.064500771462917328,
7.452,-0.073419809341430664,
7.4560000000000004,-0.083180271089076996,
7.46,-0.093974471092224121,
7.4640000000000004,-0.10568221658468246,
7.468,-0.1177746057510376,
7.4720000000000004,-0.12943427264690399,
7.476,-0.13981978595256805,
7.4800000000000004,-0.14837822318077087,
7.484,-0.15496532618999481,
7.4880000000000004,-0.15982151031494141,
7.492,-0.16337952017784119,
7.4960000000000004,-0.1659758985042572,
7.5,-0.167658731341362,
7.5039999999999996,-0.16811549663543701,
7.508,-0.16669711470603943,
7.5119999999999996,-0.16263425350189209,
7.516,-0.15522977709770203,
7.5199999999999996,-0.14419516921043396,
7.524,-0.12960255146026611,
7.5279999999999996,-0.11195679754018784,
7.532,-0.092051230370998383,
7.5359999999999996,-0.070895552635192871,
7.54,-0.04952351376414299,
7.5439999999999996,-0.028920769691467285,
7.548,-0.0098085403442382812,
7.5519999999999996,0.0072842836380004883,
7.556,0.022189419716596603,
7.5599999999999996,0.034858785569667816,
7.5640000000000001,0.045412581413984299,
7.5679999999999996,0.054067175835371017,
7.5720000000000001,0.060966812074184418,
7.5759999999999996,0.066303811967372894,
7.5800000000000001,0.070222422480583191,
7.5839999999999996,0.072939001023769379,
7.5880000000000001,0.074742041528224945,
7.5919999999999996,0.076040230691432953,
7.5960000000000001,0.07709801197052002,
7.5999999999999996,0.077987514436244965,
7.6040000000000001,0.078564487397670746,
7.6079999999999997,0.078540444374084473,
7.6120000000000001,0.077650949358940125,
7.6159999999999997,0.075871944427490234,
7.6200000000000001,0.073395773768424988,
7.6239999999999997,0.070655152201652527,
7.6280000000000001,0.068130895495414734,
7.6319999999999997,0.066231690347194672,
7.6360000000000001,0.064981579780578613,
7.6399999999999997,0.064164206385612488,
7.6440000000000001,0.063418947160243988,
7.6479999999999997,0.062361162155866623,
7.6520000000000001,0.060846608132123947,
7.6559999999999997,0.058971446007490158,
7.6600000000000001,0.057000122964382172,
7.6639999999999997,0.055341325700283051,
7.6680000000000001,0.05430757999420166,
7.6719999999999997,0.054067175835371017,
7.6760000000000002,0.054499905556440353,
7.6799999999999997,0.055197082459926605,
7.6840000000000002,0.055725973099470139,
7.6879999999999997,0.055701933801174164,
7.6920000000000002,0.055149000138044357,
7.6959999999999997,0.054740309715270996,
7.7000000000000002,0.053514242172241211,
7.7039999999999997,0.053201716393232346,
7.7080000000000002,0.053466163575649261,
7.7119999999999997,0.054211419075727463,
7.7160000000000002,0.055028796195983887,
7.7199999999999998,0.055581729859113693,
7.7240000000000002,0.055653851479291916,
7.7279999999999998,0.055317282676696777,
7.7320000000000002,0.054668188095092773,
7.7359999999999998,0.053826771676540375,
7.7400000000000002,0.05260070413351059,
7.7439999999999998,0.050725542008876801,
7.7480000000000002,0.047936838120222092,
7.7519999999999998,0.044210553169250488,
7.7560000000000002,0.039955377578735352,
7.7599999999999998,0.035748284310102463,
7.7640000000000002,0.032382607460021973,
7.7679999999999998,0.030579566955566406,
7.7720000000000002,0.030699770897626877,
7.7759999999999998,0.032671093940734863,
7.7800000000000002,0.035964649170637131,
7.7839999999999998,0.039498608559370041,
7.7880000000000003,0.041902661323547363,
7.7919999999999998,0.041662257164716721,
7.7960000000000003,0.037599407136440277,
7.7999999999999998,0.029281377792358398,
7.8040000000000003,0.017357271164655685,
7.8079999999999998,0.0037984054069966078,
7.8120000000000003,-0.0086305541917681694,
7.8159999999999998,-0.017044743523001671,
7.8200000000000003,-0.019352635368704796,
7.8239999999999998,-0.014881094917654991,
7.8280000000000003,-0.004351337905973196,
7.8319999999999999,0.010217229835689068,
7.8360000000000003,0.026276310905814171,
7.8399999999999999,0.041229527443647385,
7.8440000000000003,0.05293726921081543,
7.8479999999999999,0.059860944747924805,
7.8520000000000003,0.061303377151489258,
7.8559999999999999,0.057601135224103928,
7.8600000000000003,0.050629377365112305,
7.8639999999999999,0.044042270630598068,
7.8680000000000003,0.042984485626220703,
7.8719999999999999,0.0530574731528759,
7.8760000000000003,0.07808367908000946,
7.8799999999999999,0.11765440553426743,
7.8840000000000003,0.16513447463512421,
7.8879999999999999,0.20696501433849335,
7.8920000000000003,0.22446653246879578,
7.8959999999999999,0.19773344695568085,
7.9000000000000004,0.11181255429983139,
7.9039999999999999,-0.03692626953125,
7.9080000000000004,-0.2361983060836792,
7.9119999999999999,-0.45717895030975342,
7.9160000000000004,-0.65938395261764526,
7.9199999999999999,-0.80006921291351318,
7.9240000000000004,-0.84639531373977661,
7.9279999999999999,-0.78552466630935669,
7.9320000000000004,-0.62940537929534912,
7.9359999999999999,-0.41191062331199646,
7.9400000000000004,-0.17874142527580261,
7.944,0.025915702804923058,
7.9480000000000004,0.17131289839744568,
7.952,0.24655978381633759,
7.9560000000000004,0.25958976149559021,
7.96,0.23052474856376648,
7.9640000000000004,0.18266002833843231,
7.968,0.13491551578044891,
7.9720000000000004,0.097893081605434418,
7.976,0.074068903923034668,
7.9800000000000004,0.060726404190063477,
7.984,0.053466163575649261,
7.9880000000000004,0.048658054322004318,
7.992,0.046518445014953613,
7.9960000000000004,0.040436189621686935,
8,0.036878190934658051,95.914741516113281
8.0039999999999996,0.033873122185468674,
8.0079999999999991,0.031252704560756683,
8.0120000000000005,0.028560161590576172,
8.016,0.02524256706237793,
8.0199999999999996,0.02108355425298214,
8.0239999999999991,0.018679499626159668,
8.0280000000000005,0.010649959556758404,
8.032,0.0078612565994262695,
8.0359999999999996,-0.00040868920041248202,
8.0399999999999991,-0.0031973919831216335,
8.0440000000000005,-0.01216451358050108,
8.048,-0.019160311669111252,
8.0519999999999996,-0.027141770347952843,
8.0559999999999992,-0.035868488252162933,
8.0600000000000005,-0.044859647750854492,
8.0640000000000001,-0.053562324494123459,
8.0679999999999996,-0.061663985252380371,
8.0719999999999992,-0.065486431121826172,
8.0760000000000005,-0.076593160629272461,
8.0800000000000001,-0.084430381655693054,
8.0839999999999996,-0.093325376510620117,
8.0879999999999992,-0.10347048938274384,
8.0920000000000005,-0.11472146213054657,
8.0960000000000001,-0.12659749388694763,
8.0999999999999996,-0.1384735107421875,
8.1039999999999992,-0.14970044791698456,
8.1080000000000005,-0.15974938869476318,
8.1120000000000001,-0.1682116687297821,
8.1159999999999997,-0.17484685778617859,
8.1199999999999992,-0.17955879867076874,
8.1240000000000006,-0.18225133419036865,
8.1280000000000001,-0.18287639319896698,
8.1319999999999997,-0.18131375312805176,
8.1359999999999992,-0.17749130725860596,
8.1400000000000006,-0.17128884792327881,
8.1440000000000001,-0.16268233954906464,
8.1479999999999997,-0.15162369608879089,
8.1519999999999992,-0.13820907473564148,
8.1560000000000006,-0.12263079732656479,
8.1600000000000001,-0.1052735298871994,
8.1639999999999997,-0.086521908640861511,
8.1679999999999993,-0.066808663308620453,
8.1720000000000006,-0.046470366418361664,
8.1760000000000002,-0.02598782442510128,
8.1799999999999997,-0.0059380135498940945,
8.1839999999999993,0.012981891632080078,
8.1880000000000006,0.029930472373962402,
8.1920000000000002,0.044234596192836761,
8.1959999999999997,0.055389404296875,
8.1999999999999993,0.063370868563652039,
8.2040000000000006,0.068515539169311523,
8.2080000000000002,0.071592733263969421,
8.2119999999999997,0.07351597398519516,
8.2159999999999993,0.075030528008937836,
8.2200000000000006,0.076593160629272461,
8.2240000000000002,0.078227922320365906,
8.2279999999999998,0.079718433320522308,
8.2319999999999993,0.080680057406425476,
8.2360000000000007,0.080752179026603699,
8.2400000000000002,0.079646311700344086,
8.2439999999999998,0.077410541474819183,
8.2479999999999993,0.074309311807155609,
8.2520000000000007,0.070847474038600922,
8.2560000000000002,0.067553922533988953,
8.2599999999999998,0.064813300967216492,
8.2639999999999993,0.062841974198818207,
8.2680000000000007,0.061712067574262619,
8.2720000000000002,0.061303377151489258,
8.2759999999999998,0.061471663415431976,
8.2799999999999994,0.06212075799703598,
8.2840000000000007,0.063178539276123047,
8.2880000000000003,0.064500771462917328,
8.2919999999999998,0.065895125269889832,
8.2959999999999994,0.066904827952384949,
8.3000000000000007,0.067097149789333344,
8.3040000000000003,0.065678760409355164,
8.3079999999999998,0.062962174415588379,
8.3119999999999994,0.059308014810085297,
8.3160000000000007,0.055605769157409668,
8.3200000000000003,0.05401909351348877,
8.3239999999999998,0.05168716236948967,
8.3279999999999994,0.052408378571271896,
8.3320000000000007,0.053321920335292816,
8.3360000000000003,0.056952040642499924,
8.3399999999999999,0.05875508114695549,
8.3439999999999994,0.059163771569728851,
8.3480000000000008,0.058130025863647461,
8.3520000000000003,0.056158702820539474,
8.3559999999999999,0.054115258157253265,
8.3599999999999994,0.052744947373867035,
8.3640000000000008,0.052384339272975922,
8.3680000000000003,0.052841108292341232,
8.3719999999999999,0.053466163575649261,
8.3759999999999994,0.053538285195827484,
8.3800000000000008,0.052408378571271896,
8.3840000000000003,0.050028365105390549,
8.3879999999999999,0.046782892197370529,
8.3919999999999995,0.043465297669172287,
8.3960000000000008,0.040844880044460297,
8.4000000000000004,0.039498608559370041,
8.4039999999999999,0.039618812501430511,
8.4079999999999995,0.041037201881408691,
8.4120000000000008,0.043200850486755371,
8.4160000000000004,0.045340459793806076,
8.4199999999999999,0.046085715293884277,
8.4239999999999995,0.045580863952636719,
8.4280000000000008,0.041998825967311859,
8.4320000000000004,0.035339593887329102,
8.4359999999999999,0.025891661643981934,
8.4399999999999995,0.020434459671378136,
8.4440000000000008,0.0035580000840127468,
8.4480000000000004,-0.0054812431335449219,
8.452,-0.0085584325715899467,
8.4559999999999995,-0.010072986595332623,
8.4600000000000009,-0.0043753786012530327,
8.4640000000000004,0.0057216486893594265,
8.468,0.018487175926566124,
8.4719999999999995,0.031949877738952637,
8.4760000000000009,0.044210553169250488,
8.4800000000000004,0.053754650056362152,
8.484,0.059404175728559494,
8.4879999999999995,0.060630243271589279,
8.4920000000000009,0.057865582406520844,
8.4960000000000004,0.052985351532697678,
8.5,0.04969179630279541,
8.5039999999999996,0.050220690667629242,
8.5079999999999991,0.06856362521648407,
8.5120000000000005,0.099022984504699707,
8.516,0.11955361068248749,
8.5199999999999996,0.1907857358455658,
8.5239999999999991,0.22788028419017792,
8.5280000000000005,0.23391446471214294,
8.532,0.18943946063518524,
8.5359999999999996,0.14393071830272675,
8.5399999999999991,-0.087074838578701019,
8.5440000000000005,-0.29992979764938354,
8.548,-0.41255971789360046,
8.5519999999999996,-0.71104705333709717,
8.5559999999999992,-0.82444632053375244,
8.5600000000000005,-0.83502411842346191,
8.5640000000000001,-0.7381407618522644,
8.5679999999999996,-0.55432677268981934,
8.5719999999999992,-0.32348951697349548,
8.5760000000000005,-0.093133054673671722,
8.5800000000000001,0.095416903495788574,
8.5839999999999996,0.21759092807769775,
8.5879999999999992,0.26947042346000671,
8.5920000000000005,0.26442191004753113,
8.5960000000000001,0.22513966262340546,
8.5999999999999996,0.17439007759094238,
8.6039999999999992,0.12856881320476532,
8.6080000000000005,0.095416903495788574,
8.6120000000000001,0.075294971466064453,
8.6159999999999997,0.064645014703273773,
8.6199999999999992,0.059067606925964355,
8.6240000000000006,0.055365364998579025,
8.6280000000000001,0.051999688148498535,
8.6319999999999997,0.04844168946146965,
8.6359999999999992,0.044643282890319824,
8.6400000000000006,0.040484271943569183,
8.6440000000000001,0.035868488252162933,
8.6479999999999997,0.030795931816101074,
8.6519999999999992,0.025458931922912598,
8.6560000000000006,0.020121932029724121,
8.6600000000000001,0.015121500007808208,
8.6639999999999997,0.010529756546020508,
8.6679999999999993,0.0062986216507852077,
8.6720000000000006,0.0022357702255249023,
8.6760000000000002,-0.0020194053649902344,
8.6799999999999997,-0.0068034729920327663,
8.6839999999999993,-0.012356838211417198,
8.6880000000000006,-0.018751621246337891,
8.6920000000000002,-0.02598782442510128,
8.6959999999999997,-0.029930472373962402,
8.6999999999999993,-0.043056607246398926,
8.7040000000000006,-0.052841108292341232,
8.7080000000000002,-0.063274703919887543,
8.7119999999999997,-0.073996782302856445,
8.7159999999999993,-0.084694825112819672,
8.7200000000000006,-0.095008216798305511,
8.7240000000000002,-0.10484080016613007,
8.7279999999999998,-0.11431276798248291,
8.7319999999999993,-0.12364050000905991,
8.7360000000000007,-0.1330643892288208,
8.7400000000000002,-0.14253637194633484,
8.7439999999999998,-0.15176793932914734,
8.7479999999999993,-0.1601099967956543,
8.7520000000000007,-0.16686539351940155,
8.7560000000000002,-0.17152926325798035,
8.7599999999999998,-0.17383715510368347,
8.7639999999999993,-0.1738131046295166,
8.7680000000000007,-0.17160138487815857,
8.7720000000000002,-0.16717791557312012,
8.7759999999999998,-0.16044656932353973,
8.7799999999999994,-0.15119096636772156,
8.7840000000000007,-0.13919472694396973,
8.7880000000000003,-0.12440979480743408,
8.7919999999999998,-0.10714869201183319,
8.7959999999999994,-0.087940298020839691,
8.8000000000000007,-0.067698165774345398,
8.8040000000000003,-0.04723966121673584,
8.8079999999999998,-0.027358135208487511,
8.8119999999999994,-0.0086305541917681694,
8.8160000000000007,0.0085584325715899467,
8.8200000000000003,0.023920338600873947,
8.8239999999999998,0.037262838333845139,
8.8279999999999994,0.048537850379943848,
8.8320000000000007,0.053418081253767014,
8.8360000000000003,0.064981579780578613,
8.8399999999999999,0.070414744317531586,
8.8439999999999994,0.074405476450920105,
8.8480000000000008,0.077362462878227234,
8.8520000000000003,0.079646311700344086,
8.8559999999999999,0.081425309181213379,
8.8599999999999994,0.082771584391593933,
8.8640000000000008,0.083516836166381836,
8.8680000000000003,0.083588957786560059,
8.8719999999999999,0.082939863204956055,
8.8759999999999994,0.081689760088920593,
8.8800000000000008,0.080054998397827148,
8.8840000000000003,0.078348122537136078,
8.8879999999999999,0.076881647109985352,
8.8919999999999995,0.075823865830898285,
8.8960000000000008,0.075150728225708008,
8.9000000000000004,0.074621841311454773,
8.9039999999999999,0.074044868350028992,
8.9079999999999995,0.073251530528068542,
8.9120000000000008,0.072217784821987152,
8.9160000000000004,0.070991717278957367,
8.9199999999999999,0.069669485092163086,
8.9239999999999995,0.068299174308776855,
8.9280000000000008,0.066880784928798676,
8.9320000000000004,0.065342187881469727,
8.9359999999999999,0.063635312020778656,
8.9399999999999995,0.061688028275966644,
8.9440000000000008,0.059716701507568359,
8.9480000000000004,0.057961743324995041,
8.952,0.056783758103847504,
8.9559999999999995,0.056375067681074142,
8.9600000000000009,0.056783758103847504,
8.9640000000000004,0.05784153938293457,
8.968,0.059283971786499023,
8.9719999999999995,0.06075044721364975,
8.9760000000000009,0.061856310814619064,
8.9800000000000004,0.0622890405356884,
8.984,0.06183227151632309,
8.9879999999999995,0.060582160949707031,
8.9920000000000009,0.058803163468837738,
8.9960000000000004,0.056952040642499924,
9,0.055533647537231445,95.617530822753906
9.0039999999999996,0.054860513657331467,
9.0079999999999991,0.055028796195983887,
9.0120000000000005,0.055701933801174164,
9.016,0.056230824440717697,
9.0199999999999996,0.055966377258300781,
9.0239999999999991,0.054427783936262131,
9.0280000000000005,0.051783323287963867,
9.032,0.048658054322004318,
9.0359999999999996,0.045965515077114105,
9.0399999999999991,0.044595204293727875,
9.0440000000000005,0.04507601261138916,
9.048,0.047167539596557617,
9.0519999999999996,0.049884121865034103,
9.0559999999999992,0.051735244691371918,
9.0600000000000005,0.051038067787885666,
9.0640000000000001,0.046590566635131836,
9.0679999999999996,0.03812829777598381,
9.0719999999999992,0.026564797386527061,
9.0760000000000005,0.013727148994803429,
9.0800000000000001,0.0021636486053466797,
9.0839999999999996,-0.0057216486893594265,
9.0879999999999992,-0.0081497430801391602,
9.0920000000000005,-0.0045436620712280273,
9.0960000000000001,0.0044715404510498047,
9.0999999999999996,0.017164945602416992,
9.1039999999999992,0.031324826180934906,
9.1080000000000005,0.044715404510498047,
9.1120000000000001,0.055413447320461273,
9.1159999999999997,0.06212075799703598,
9.1199999999999992,0.064212284982204437,
9.1240000000000006,0.061880350112915039,
9.1280000000000001,0.056663554161787033,
9.1319999999999997,0.051494836807250977,
9.1359999999999992,0.050701498985290527,
9.1400000000000006,0.059211850166320801,
9.1440000000000001,0.081016622483730316,
9.1479999999999997,0.1169331893324852,
9.1519999999999992,0.16244193911552429,
9.1560000000000006,0.20643612742424011,
9.1600000000000001,0.23203930258750916,
9.1639999999999997,0.21982669830322266,
9.1679999999999993,0.15342673659324646,
9.1720000000000006,0.025819540023803711,
9.1760000000000002,-0.15539805591106415,
9.1799999999999997,-0.36606532335281372,
9.1839999999999993,-0.56891942024230957,
9.1880000000000006,-0.72184127569198608,
9.1920000000000002,-0.78953945636749268,
9.1959999999999997,-0.75429600477218628,
9.1999999999999993,-0.62212109565734863,
9.2040000000000006,-0.42164704203605652,
9.2080000000000002,-0.19549767673015594,
9.2119999999999997,0.01214047335088253,
9.2159999999999993,0.16792318224906921,
9.2200000000000006,0.25665682554244995,
9.2240000000000002,0.28223595023155212,
9.2279999999999998,0.26187360286712646,
9.2319999999999993,0.21787941455841064,
9.2360000000000007,0.16963005065917969,
9.2400000000000002,0.12912175059318542,
9.2439999999999998,0.10048945993185043,
9.2479999999999993,0.082362890243530273,
9.2520000000000007,0.071160003542900085,
9.2560000000000002,0.063491068780422211,
9.2599999999999998,0.057529013603925705,
9.2639999999999993,0.052624743431806564,
9.2680000000000007,0.048826336860656738,
9.2720000000000002,0.046133797615766525,
9.2759999999999998,0.044186513870954514,
9.2799999999999994,0.042311351746320724,
9.2840000000000007,0.039787095040082932,
9.2880000000000003,0.036108892410993576,
9.2919999999999998,0.03106037899851799,
9.2959999999999994,0.024809837341308594,
9.3000000000000007,0.017693838104605675,
9.3040000000000003,0.010241270065307617,
9.3079999999999998,0.0029810271225869656,
9.3119999999999994,-0.0038224458694458008,
9.3160000000000007,-0.010145108215510845,
9.3200000000000003,-0.016251405701041222,
9.3239999999999998,-0.022477906197309494,
9.3279999999999994,-0.029113095253705978,
9.3320000000000007,-0.036325257271528244,
9.3360000000000003,-0.044114392250776291,
9.3399999999999999,-0.052408378571271896,
9.3439999999999994,-0.061111055314540863,
9.3480000000000008,-0.070078179240226746,
9.3520000000000003,-0.079381868243217468,
9.3559999999999999,-0.089142322540283203,
9.3599999999999994,-0.099407635629177094,
9.3640000000000008,-0.11008163541555405,
9.3680000000000003,-0.12080371379852295,
9.3719999999999999,-0.13090074062347412,
9.3759999999999994,-0.13972362875938416,
9.3800000000000008,-0.14669537544250488,
9.3840000000000003,-0.15159964561462402,
9.3879999999999999,-0.1545085608959198,
9.3919999999999995,-0.15575866401195526,
9.3960000000000008,-0.15578269958496094,
9.4000000000000004,-0.15479704737663269,
9.4039999999999999,-0.15270552039146423,
9.4079999999999995,-0.14890711009502411,
9.4120000000000008,-0.14268061518669128,
9.4160000000000004,-0.13330480456352234,
9.4199999999999999,-0.12034694850444794,
9.4239999999999995,-0.10404746234416962,
9.4280000000000008,-0.085175633430480957,
9.4320000000000004,-0.065005622804164886,
9.4359999999999999,-0.04507601261138916,
9.4399999999999995,-0.026564797386527061,
9.4440000000000008,-0.010097026824951172,
9.4480000000000004,0.0044955811463296413,
9.452,0.017765959724783897,
9.4559999999999995,0.030387243255972862,
9.4600000000000009,0.042671959847211838,
9.4640000000000004,0.054379701614379883,
9.468,0.064885422587394714,
9.4719999999999995,0.07351597398519516,
9.4760000000000009,0.079814597964286804,
9.4800000000000004,0.083853408694267273,
9.484,0.086137257516384125,
9.4879999999999995,0.087387368083000183,
9.4920000000000009,0.088228784501552582,
9.4960000000000004,0.088974043726921082,
9.5,0.089647173881530762,
9.5039999999999996,0.09015202522277832,
9.5079999999999991,0.090464554727077484,
9.5120000000000005,0.090704962611198425,
9.516,0.091017484664916992,
9.5199999999999996,0.091474257409572601,
9.5239999999999991,0.091955065727233887,
9.5280000000000005,0.092147395014762878,
9.532,0.091738700866699219,
9.5359999999999996,0.090392433106899261,
9.5399999999999991,0.088036462664604187,
9.5440000000000005,0.084959268569946289,
9.548,0.081641674041748047,
9.5519999999999996,0.078612565994262695,
9.5559999999999992,0.076256595551967621,
9.5600000000000005,0.074669919908046722,
9.5640000000000001,0.073732338845729828,
9.5679999999999996,0.073203444480895996,
9.5719999999999992,0.072674557566642761,
9.5760000000000005,0.071833133697509766,
9.5800000000000001,0.070366665720939636,
9.5839999999999996,0.068275138735771179,
9.5879999999999992,0.065774917602539062,
9.5920000000000005,0.063226625323295593,
9.5960000000000001,0.061183176934719086,
9.5999999999999996,0.060101352632045746,
9.6039999999999992,0.060245595872402191,
9.6080000000000005,0.061639945954084396,
9.6120000000000001,0.063899755477905273,
9.6159999999999997,0.06639997661113739,
9.6199999999999992,0.068467460572719574,
9.6240000000000006,0.069549284875392914,
9.6280000000000001,0.069429084658622742,
9.6319999999999997,0.068178974092006683,
9.6359999999999992,0.06599128246307373,
9.6400000000000006,0.06320258229970932,
9.6440000000000001,0.060101352632045746,
9.6479999999999997,0.057024162262678146,
9.6519999999999992,0.054355662316083908,
9.6560000000000006,0.052432417869567871,
9.6600000000000001,0.051566958427429199,
9.6639999999999997,0.051951609551906586,
9.6679999999999993,0.053466163575649261,
9.6720000000000006,0.055461525917053223,
9.6760000000000002,0.056903958320617676,
9.6799999999999997,0.056567393243312836,
9.6839999999999993,0.053466163575649261,
9.6880000000000006,0.047335825860500336,
9.6920000000000002,0.038729310035705566,
9.6959999999999997,0.028992891311645508,
9.6999999999999993,0.020073851570487022,
9.7040000000000006,0.013895432464778423,
9.7080000000000002,0.011876027099788189,
9.7119999999999997,0.014760891906917095,
9.7159999999999993,0.022189419716596603,
9.7200000000000006,0.033151905983686447,
9.7240000000000002,0.046037636697292328,
9.7279999999999998,0.059019528329372406,
9.7319999999999993,0.070246458053588867,
9.7360000000000007,0.077939435839653015,
9.7400000000000002,0.080824300646781921,
9.7439999999999998,0.078660652041435242,
9.7479999999999993,0.072722636163234711,
9.7520000000000007,0.066351890563964844,
9.7560000000000002,0.064572893083095551,
9.7599999999999998,0.073083244264125824,
9.7639999999999993,0.096090041100978851,
9.7680000000000007,0.13397793471813202,
9.7720000000000002,0.18095314502716064,
9.7759999999999998,0.22444248199462891,
9.7799999999999994,0.24648766219615936,
9.7840000000000007,0.22778412699699402,
9.7880000000000003,0.15333056449890137,
9.7919999999999998,0.018727581948041916,
9.7959999999999994,-0.1654229611158371,
9.8000000000000007,-0.37279665470123291,
9.8040000000000003,-0.56560182571411133,
9.8079999999999998,-0.7033541202545166,
9.8119999999999994,-0.75403153896331787,
9.8160000000000007,-0.70393109321594238,
9.8200000000000003,-0.56245249509811401,
9.8239999999999998,-0.35986286401748657,
9.8279999999999994,-0.1384735107421875,
9.8320000000000007,0.059644579887390137,
9.8360000000000003,0.20410418510437012,
9.8399999999999999,0.28254848718643188,
9.8439999999999994,0.3006269633769989,
9.8480000000000008,0.27615368366241455,
9.8520000000000003,0.23090939223766327,
9.8559999999999999,0.18316487967967987,
9.8599999999999994,0.14383456110954285,
9.8640000000000008,0.11623601615428925,
9.8680000000000003,0.098614297807216644,
9.8719999999999999,0.087339282035827637,
9.8759999999999994,0.079261660575866699,
9.8800000000000008,0.072722636163234711,
9.8840000000000003,0.067289471626281738,
9.8879999999999999,0.063106417655944824,
9.8919999999999995,0.060101352632045746,
9.8960000000000008,0.057865582406520844,
9.9000000000000004,0.055581729859113693,
9.9039999999999999,0.052552621811628342,
9.9079999999999995,0.04832148551940918,
9.9120000000000008,0.042888324707746506,
9.9160000000000004,0.036565661430358887,
9.9199999999999999,0.029930472373962402,
9.9239999999999995,0.02353568933904171,
9.9280000000000008,0.017741918563842773,
9.9320000000000004,0.012549161911010742,
9.9359999999999999,0.0075246891938149929,
9.9399999999999995,0.0021155676804482937,
9.9440000000000008,-0.0041590137407183647,
9.9480000000000004,-0.011563500389456749,
9.952,-0.020073851570487022,
9.9559999999999995,-0.029401581734418869,
9.9600000000000009,-0.039186082780361176,
9.9640000000000004,-0.049042701721191406,
9.968,-0.058779120445251465,
9.9719999999999995,-0.068323217332363129,
9.9760000000000009,-0.077891349792480469,
9.9800000000000004,-0.087651811540126801,
9.984,-0.097748838365077972,
9.9879999999999995,-0.10799010843038559,
9.9920000000000009,-0.11794289201498032,
9.9960000000000004,-0.12698213756084442,
10,-0.1344587504863739,95.744682312011719
10.004,-0.13991594314575195,
10.007999999999999,-0.14316141605377197,
10.012,-0.14429132640361786,
10.016,-0.14366626739501953,
10.02,-0.14162282645702362,
10.023999999999999,-0.13816098868846893,
10.028,-0.13289611041545868,
10.032,-0.12520313262939453,
10.036,-0.11455317586660385,
10.039999999999999,-0.10077794641256332,
10.044,-0.084141895174980164,
10.048,-0.065414309501647949,
10.052,-0.045580863952636719,
10.055999999999999,-0.025603175163269043,
10.06,-0.0062986216507852077,
10.064,0.011827945709228516,
10.068,0.028415918350219727,
10.071999999999999,0.043128728866577148,
10.076000000000001,0.055701933801174164,
10.08,0.065919160842895508,
10.084,0.073876582086086273,
10.087999999999999,0.079982876777648926,
10.092000000000001,0.084742903709411621,
10.096,0.088613435626029968,
10.1,0.091858908534049988,
10.103999999999999,0.09443124383687973,
10.108000000000001,0.096210241317749023,
10.112,0.097099743783473969,
10.116,0.097268030047416687,
10.119999999999999,0.097003579139709473,
10.124000000000001,0.096787214279174805,
10.128,0.097027622163295746,
10.132,0.097820959985256195,
10.135999999999999,0.098902784287929535,
10.140000000000001,0.099816322326660156,
10.144,0.1000567302107811,
10.148,0.099311470985412598,
10.151999999999999,0.097508430480957031,
10.156000000000001,0.094936095178127289,
10.16,0.092051230370998383,
10.164,0.089382730424404144,
10.167999999999999,0.087267160415649414,
10.172000000000001,0.085728570818901062,
10.176,0.084502503275871277,
10.18,0.0830841064453125,
10.183999999999999,0.081112787127494812,
10.188000000000001,0.078564487397670746,
10.192,0.075727701187133789,
10.196,0.07317940890789032,
10.199999999999999,0.071376368403434753,
10.204000000000001,0.070655152201652527,
10.208,0.070847474038600922,
10.212,0.071568690240383148,
10.215999999999999,0.072217784821987152,
10.220000000000001,0.072289906442165375,
10.224,0.071592733263969421,
10.228,0.07031857967376709,
10.231999999999999,0.068876147270202637,
10.236000000000001,0.067674122750759125,
10.24,0.066952906548976898,
10.244,0.06678462028503418,
10.247999999999999,0.066904827952384949,
10.252000000000001,0.066832706332206726,
10.256,0.066087447106838226,
10.26,0.064332485198974609,
10.263999999999999,0.061591863632202148,
10.268000000000001,0.058250229805707932,
10.272,0.055028796195983887,
10.276,0.052624743431806564,
10.279999999999999,0.051494836807250977,
10.284000000000001,0.051663123071193695,
10.288,0.052576661109924316,
10.292,0.053201716393232346,
10.295999999999999,0.052408378571271896,
10.300000000000001,0.049283109605312347,
10.304,0.043633580207824707,
10.308,0.036156974732875824,
10.311999999999999,0.028175514191389084,
10.316000000000001,0.021420121192932129,
10.32,0.017477473244071007,
10.324,0.017405351623892784,
10.327999999999999,0.021468203514814377,
10.332000000000001,0.0292332973331213,
10.336,0.039642851799726486,
10.34,0.051326554268598557,
10.343999999999999,0.062793895602226257,
10.348000000000001,0.072554349899291992,
10.352,0.079093381762504578,
10.356,0.081377230584621429,
10.359999999999999,0.079429946839809418,
10.364000000000001,0.07493436336517334,
10.368,0.071496568620204926,
10.372,0.074165068566799164,
10.375999999999999,0.087747976183891296,
10.380000000000001,0.1146012544631958,
10.384,0.15229682624340057,
10.388,0.19225220382213593,
10.391999999999999,0.21989881992340088,
10.396000000000001,0.21742264926433563,
10.4,0.16852419078350067,
10.404,0.06423632800579071,
10.407999999999999,-0.09197910875082016,
10.412000000000001,-0.2817070484161377,
10.416,-0.37967225909233093,
10.42,-0.62930923700332642,
10.423999999999999,-0.71419638395309448,
10.428000000000001,-0.70681595802307129,
10.432,-0.60623031854629517,
10.436,-0.43318650126457214,
10.44,-0.22422611713409424,
10.444000000000001,-0.020987391471862793,
10.448,0.14152666926383972,
10.452,0.24362683296203613,
10.456,0.28358221054077148,
10.460000000000001,0.27444681525230408,
10.464,0.23653487861156464,
10.468,0.18970391154289246,
10.472,0.14775316417217255,
10.476000000000001,0.1167408674955368,
10.48,0.096474692225456238,
10.484,0.083685122430324554,
10.488,0.074910327792167664,
10.492000000000001,0.067890487611293793,
10.496,0.061880350112915039,
10.5,0.056879919022321701,
10.504,0.052961312234401703,
10.507999999999999,0.049956243485212326,
10.512,0.047311782836914062,
10.516,0.045941472053527832,
10.52,0.040844880044460297,
10.523999999999999,0.036421418190002441,
10.528,0.031252704560756683,
10.532,0.025579135864973068,
10.536,0.019593041390180588,
10.539999999999999,0.013510784134268761,
10.544,0.0074525675736367702,
10.548,0.0014424324035644531,
10.552,-0.0045436620712280273,
10.555999999999999,-0.010673999786376953,
10.56,-0.017164945602416992,
10.564,-0.024136703461408615,
10.568,-0.031733512878417969,
10.571999999999999,-0.040051542222499847,
10.576000000000001,-0.049114823341369629,
10.58,-0.058827202767133713,
10.584,-0.068948268890380859,
10.587999999999999,-0.079141460359096527,
10.592000000000001,-0.089022122323513031,
10.596,-0.093782149255275726,
10.6,-0.10707657039165497,
10.603999999999999,-0.11505802720785141,
10.608000000000001,-0.12239038944244385,
10.612,-0.1291457861661911,
10.616,-0.13522803783416748,
10.619999999999999,-0.14054100215435028,
10.624000000000001,-0.14467597007751465,
10.628,-0.14724831283092499,
10.632,-0.14768104255199432,
10.635999999999999,-0.14558951556682587,
10.640000000000001,-0.14056503772735596,
10.644,-0.13229510188102722,
10.648,-0.12073159217834473,
10.651999999999999,-0.10606686770915985,
10.656000000000001,-0.097724795341491699,
10.66,-0.069885849952697754,
10.664,-0.050244729965925217,
10.667999999999999,-0.030868053436279297,
10.672000000000001,-0.012549161911010742,
10.676,0.0041830539703369141,
10.68,0.011876027099788189,
10.683999999999999,0.032238364219665527,
10.688000000000001,0.043729744851589203,
10.692,0.053682528436183929,
10.696,0.062192879617214203,
10.699999999999999,0.06923675537109375,
10.704000000000001,0.07488628476858139,
10.708,0.079309746623039246,
10.712,0.082627341151237488,
10.715999999999999,0.084983311593532562,
10.720000000000001,0.086449787020683289,
10.724,0.087098881602287292,
10.728,0.087098881602287292,
10.731999999999999,0.086666151881217957,
10.736000000000001,0.086065135896205902,
10.74,0.085608363151550293,
10.744,0.085608363151550293,
10.747999999999999,0.086185336112976074,
10.752000000000001,0.087195038795471191,
10.756,0.088348984718322754,
10.76,0.089286565780639648,
10.763999999999999,0.089695259928703308,
10.768000000000001,0.089406773447990417,
10.772,0.088974043726921082,
10.776,0.086545944213867188,
10.779999999999999,0.084069773554801941,
10.784000000000001,0.081136822700500488,
10.788,0.078035593032836914,
10.792,0.075102649629116058,
10.795999999999999,0.072722636163234711,
10.800000000000001,0.071160003542900085,
10.804,0.070534944534301758,
10.808,0.070703230798244476,
10.811999999999999,0.071232125163078308,
10.816000000000001,0.071520611643791199,
10.82,0.071087881922721863,
10.824,0.069693528115749359,
10.827999999999999,0.06748180091381073,
10.832000000000001,0.064837336540222168,
10.836,0.062337122857570648,
10.84,0.060341756790876389,
10.843999999999999,0.059043567627668381,
10.848000000000001,0.058394473046064377,
10.852,0.058009825646877289,
10.856,0.057577095925807953,
10.859999999999999,0.056831836700439453,
10.864000000000001,0.055798094719648361,
10.868,0.054620109498500824,
10.872,0.053466163575649261,
10.875999999999999,0.052432417869567871,
10.880000000000001,0.051422715187072754,
10.884,0.050268769264221191,
10.888,0.048922501504421234,
10.891999999999999,0.047431986778974533,
10.896000000000001,0.04598955437541008,
10.9,0.045340459793806076,
10.904,0.043801866471767426,
10.907999999999999,0.042840242385864258,
10.912000000000001,0.041301649063825607,
10.916,0.038585066795349121,
10.92,0.034329891204833984,
10.923999999999999,0.028752487152814865,
10.928000000000001,0.022766392678022385,
10.932,0.017693838104605675,
10.936,0.015025338158011436,
10.94,0.015818675979971886,
10.944000000000001,0.017693838104605675,
10.948,0.028704404830932617,
10.952,0.033752918243408203,
10.956,0.050388973206281662,
10.960000000000001,0.055701933801174164,
10.964,0.064693093299865723,
10.968,0.070342622697353363,
10.972,0.071905255317687988,
10.976000000000001,0.069573327898979187,
10.98,0.064957544207572937,
10.984,0.061303377151489258,
10.988,0.062986217439174652,
10.992000000000001,0.074357390403747559,
10.996,0.097820959985256195,
11,0.13174216449260712,96.1923828125
11.004,0.169149249792099,
11.007999999999999,0.19751708209514618,
11.012,0.20088276267051697,
11.016,0.16369204223155975,
11.02,0.076064273715019226,
11.023999999999999,-0.06108701229095459,
11.028,-0.23324131965637207,
11.032,-0.41304051876068115,
11.036,-0.56564986705780029,
11.039999999999999,-0.65741264820098877,
11.044,-0.66558641195297241,
11.048,-0.58572375774383545,
11.052,-0.43376347422599792,
11.055999999999999,-0.24182379245758057,
11.06,-0.048754215240478516,
11.064,0.11089901626110077,
11.068,0.21588405966758728,
11.071999999999999,0.26170533895492554,
11.076000000000001,0.25860410928726196,
11.08,0.22506754100322723,
11.084,0.18042425811290741,
11.087999999999999,0.1392187774181366,
11.092000000000001,0.10878344625234604,
11.096,0.090007781982421875,
11.1,0.079862676560878754,
11.103999999999999,0.074357390403747559,
11.108000000000001,0.070198379456996918,
11.112,0.065486431121826172,
11.116,0.05966862291097641,
11.119999999999999,0.053033433854579926,
11.124000000000001,0.046302080154418945,
11.128,0.040315985679626465,
11.132,0.03567616268992424,
11.135999999999999,0.032502811402082443,
11.140000000000001,0.030363202095031738,
11.144,0.028488039970397949,
11.148,0.02598782442510128,
11.151999999999999,0.022213459014892578,
11.156000000000001,0.016996663063764572,
11.16,0.010649959556758404,
11.164,0.0037022433243691921,
11.167999999999999,-0.0034137568436563015,
11.172000000000001,-0.010481676086783409,
11.176,-0.017621716484427452,
11.18,-0.025050243362784386,
11.183999999999999,-0.032935541123151779,
11.188000000000001,-0.041181445121765137,
11.192,-0.049643717706203461,
11.196,-0.058081947267055511,
11.199999999999999,-0.066544219851493835,
11.204000000000001,-0.07522284984588623,
11.208,-0.084334217011928558,
11.212,-0.094046592712402344,
11.215999999999999,-0.10423978418111801,
11.220000000000001,-0.11443297564983368,
11.224,-0.12385686486959457,
11.228,-0.13176620006561279,
11.231999999999999,-0.13765613734722137,
11.236000000000001,-0.14152666926383972,
11.24,-0.14361819624900818,
11.244,-0.14431536197662354,
11.247999999999999,-0.14376243948936462,
11.252000000000001,-0.14169494807720184,
11.256,-0.13748785853385925,
11.26,-0.13049206137657166,
11.263999999999999,-0.12025078386068344,
11.268000000000001,-0.10688424110412598,
11.272,-0.091089606285095215,
11.276,-0.073948703706264496,
11.279999999999999,-0.056519310921430588,
11.284000000000001,-0.039522647857666016,
11.288,-0.023247202858328819,
11.292,-0.0077170133590698242,
11.295999999999999,0.006923675537109375,
11.300000000000001,0.02029021643102169,
11.304,0.031733512878417969,
11.308,0.040796797722578049,
11.311999999999999,0.047480069100856781,
11.316000000000001,0.052360296249389648,
11.32,0.056567393243312836,
11.324,0.061159133911132812,
11.327999999999999,0.06673654168844223,
11.332000000000001,0.073035165667533875,
11.336,0.079069338738918304,
11.34,0.083613000810146332,
11.343999999999999,0.085752606391906738,
11.348000000000001,0.085319876670837402,
11.352,0.082843706011772156,
11.356,0.079285703599452972,
11.359999999999999,0.075655579566955566,
11.364000000000001,0.072698593139648438,
11.368,0.070703230798244476,
11.372,0.069597363471984863,
11.375999999999999,0.069068476557731628,
11.380000000000001,0.068707868456840515,
11.384,0.068323217332363129,
11.388,0.067842409014701843,
11.391999999999999,0.067313514649868011,
11.396000000000001,0.06678462028503418,
11.4,0.066327854990959167,
11.404,0.065943203866481781,
11.407999999999999,0.065534517168998718,
11.412000000000001,0.065005622804164886,
11.416,0.064212284982204437,
11.42,0.062986217439174652,
11.423999999999999,0.061279337853193283,
11.428000000000001,0.059211850166320801,
11.432,0.056903958320617676,
11.436,0.054499905556440353,
11.44,0.052192013710737228,
11.444000000000001,0.050148569047451019,
11.448,0.04844168946146965,
11.452,0.047167539596557617,
11.456,0.046229958534240723,
11.460000000000001,0.045556824654340744,
11.464,0.045051973313093185,
11.468,0.044643282890319824,
11.472,0.044234596192836761,
11.476000000000001,0.04365762323141098,
11.48,0.042720042169094086,
11.484,0.041301649063825607,
11.488,0.039426486939191818,
11.492000000000001,0.037190716713666916,
11.496,0.034810703247785568,
11.5,0.032526850700378418,
11.504,0.030483406037092209,
11.507999999999999,0.028824608772993088,
11.512,0.027550458908081055,
11.516,0.02661287784576416,
11.52,0.025795500725507736,
11.523999999999999,0.024930041283369064,
11.528,0.023703973740339279,
11.532,0.021780729293823242,
11.536,0.018847784027457237,
11.539999999999999,0.014760891906917095,
11.544,0.0098085403442382812,
11.548,0.0047600269317626953,
11.552,0.00067313516046851873,
11.555999999999999,-0.0012260675430297852,
11.56,-0.00012020270514767617,
11.564,0.0043753786012530327,
11.568,0.011948148719966412,
11.571999999999999,0.021684568375349045,
11.576000000000001,0.032214324921369553,
11.58,0.042070947587490082,
11.584,0.049715839326381683,
11.587999999999999,0.053946971893310547,
11.592000000000001,0.054187379777431488,
11.596,0.050869785249233246,
11.6,0.045941472053527832,
11.603999999999999,0.042960446327924728,
11.608000000000001,0.046302080154418945,
11.612,0.059957109391689301,
11.616,0.085319876670837402,
11.619999999999999,0.11938532441854477,
11.624000000000001,0.15369117259979248,
11.628,0.17489492893218994,
11.632,0.16725003719329834,
11.635999999999999,0.11702935397624969,
11.640000000000001,0.017790000885725021,
11.644,-0.12534737586975098,
11.648,-0.2937273383140564,
11.651999999999999,-0.4577559232711792,
11.656000000000001,-0.58327162265777588,
11.66,-0.64082467555999756,
11.664,-0.61466854810714722,
11.667999999999999,-0.50824105739593506,
11.672000000000001,-0.34385186433792114,
11.676,-0.15633563697338104,
11.68,0.017237067222595215,
11.683999999999999,0.14808973670005798,
11.688000000000001,0.22249519824981689,
11.692,0.24283349514007568,
11.696,0.22343277931213379,
11.699999999999999,0.18350145220756531,
11.704000000000001,0.1400601863861084,
11.708,0.10395129770040512,
11.712,0.078949138522148132,
11.715999999999999,0.063683390617370605,
11.720000000000001,0.054644148796796799,
11.724,0.04860997200012207,
11.728,0.04370570182800293,
11.731999999999999,0.039306282997131348,
11.736000000000001,0.035435758531093597,
11.74,0.032094120979309082,
11.744,0.029113095253705978,
11.747999999999999,0.026252269744873047,
11.752000000000001,0.023247202858328819,
11.756,0.019953649491071701,
11.76,0.016347568482160568,
11.763999999999999,0.012501081451773643,
11.768000000000001,0.0085103511810302734,
11.772,0.0043753786012530327,
11.776,-4.8081081331474707e-05,
11.779999999999999,-0.0049042701721191406,
11.784000000000001,-0.010385513305664062,
11.788,-0.016515851020812988,
11.792,-0.023271244019269943,
11.795999999999999,-0.030459364876151085,
11.800000000000001,-0.037887893617153168,
11.804,-0.045340459793806076,
11.808,-0.052865147590637207,
11.811999999999999,-0.060630243271589279,
11.816000000000001,-0.068972311913967133,
11.82,-0.078107714653015137,
11.824,-0.087964341044425964,
11.827999999999999,-0.098157525062561035,
11.832000000000001,-0.10813435167074203,
11.836,-0.11734187602996826,
11.84,-0.1254194974899292,
11.843999999999999,-0.132222980260849,
11.848000000000001,-0.1378244161605835,
11.852,-0.14227192103862762,
11.856,-0.14566163718700409,
11.859999999999999,-0.14792144298553467,
11.864000000000001,-0.14885902404785156,
11.868,-0.14818589389324188,
11.872,-0.14551739394664764,
11.875999999999999,-0.14054100215435028,
11.880000000000001,-0.13284802436828613,
11.884,-0.12217402458190918,
11.888,-0.1084468811750412,
11.891999999999999,-0.091955065727233887,
11.896000000000001,-0.073395773768424988,
11.9,-0.053802728652954102,
11.904,-0.034329891204833984,
11.907999999999999,-0.016059082001447678,
11.912000000000001,0.00021636486053466797,
11.916,0.014159878715872765,
11.92,0.025723379105329514,
11.923999999999999,0.035147272050380707,
11.928000000000001,0.042864285409450531,
11.932,0.049210987985134125,
11.936,0.054355662316083908,
11.94,0.058442555367946625,
11.944000000000001,0.061591863632202148,
11.948,0.06394784152507782,
11.952,0.06570279598236084,
11.956,0.06707310676574707,
11.960000000000001,0.068178974092006683,
11.964,0.069140598177909851,
11.968,0.069885849952697754,
11.972,0.07031857967376709,
11.976000000000001,0.07031857967376709,
11.98,0.069813728332519531,
11.984,0.06885211169719696,
11.988,0.067553922533988953,
11.992000000000001,0.0661114901304245,
11.996,0.064645014703273773,
12,0.06325066089630127,96.428573608398438
12.004,0.062096714973449707,
12.007999999999999,0.061303377151489258,
12.012,0.06091872975230217,
12.016,0.060942769050598145,
12.02,0.06120721623301506,
12.023999999999999,0.061519742012023926,
12.028,0.061591863632202148,
12.032,0.061135094612836838,
12.036,0.06000518798828125,
12.039999999999999,0.058226190507411957,
12.044,0.056158702820539474,
12.048,0.054235458374023438,
12.052,0.052841108292341232,
12.055999999999999,0.05214393138885498,
12.06,0.051927566528320312,
12.064,0.051831405609846115,
12.068,0.051374636590480804,
12.071999999999999,0.050340890884399414,
12.076000000000001,0.048730175942182541,
12.08,0.046879053115844727,
12.084,0.045268338173627853,
12.087999999999999,0.044282674789428711,
12.092000000000001,0.04399418830871582,
12.096,0.044210553169250488,
12.1,0.044619243592023849,
12.103999999999999,0.04490773007273674,
12.108000000000001,0.044955812394618988,
12.112,0.04478752613067627,
12.116,0.044475000351667404,
12.119999999999999,0.044042270630598068,
12.124000000000001,0.043561458587646484,
12.128,0.04291236400604248,
12.132,0.042094986885786057,
12.135999999999999,0.040892958641052246,
12.140000000000001,0.039258204400539398,
12.144,0.037070512771606445,
12.148,0.034450095146894455,
12.151999999999999,0.031637351959943771,
12.156000000000001,0.029016932472586632,
12.16,0.027117729187011719,
12.164,0.026372473686933517,
12.167999999999999,0.026949446648359299,
12.172000000000001,0.028343796730041504,
12.176,0.029569864273071289,
12.18,0.029257338494062424,
12.183999999999999,0.026156108826398849,
12.188000000000001,0.019689202308654785,
12.192,0.010241270065307617,
12.196,-0.00067313516046851873,
12.199999999999999,-0.0107701625674963,
12.204000000000001,-0.017501514405012131,
12.208,-0.018943946808576584,
12.212,-0.014328162185847759,
12.215999999999999,-0.00430325698107481,
12.220000000000001,0.009351770393550396,
12.224,0.024136703461408615,
12.228,0.037575364112854004,
12.231999999999999,0.047600269317626953,
12.236000000000001,0.052913229912519455,
12.24,0.053153634071350098,
12.244,0.049259066581726074,
12.247999999999999,0.043585501611232758,
12.252000000000001,0.039859216660261154,
12.256,0.042792163789272308,
12.26,0.056711636483669281,
12.263999999999999,0.083853408694267273,
12.268000000000001,0.12239038944244385,
12.272,0.16474983096122742,
12.276,0.19785365462303162,
12.279999999999999,0.20482540130615234,
12.284000000000001,0.16910116374492645,
12.288,0.079742476344108582,
12.292,-0.063274703919887543,
12.295999999999999,-0.24559816718101501,
12.300000000000001,-0.43912452459335327,
12.304,-0.60687941312789917,
12.308,-0.71236932277679443,
12.311999999999999,-0.72991889715194702,
12.316000000000001,-0.65318149328231812,
12.32,-0.49775940179824829,
12.324,-0.29706895351409912,
12.327999999999999,-0.092459917068481445,
12.332000000000001,0.078901052474975586,
12.336,0.19357442855834961,
12.34,0.24615108966827393,
12.343999999999999,0.24699251353740692,
12.348000000000001,0.2153070867061615,
12.352,0.17133693397045135,
12.356,0.13001124560832977,
12.359999999999999,0.098854705691337585,
12.364000000000001,0.078828930854797363,
12.368,0.067241393029689789,
12.372,0.060630243271589279,
12.375999999999999,0.056326985359191895,
12.380000000000001,0.052985351532697678,
12.384,0.050100486725568771,
12.388,0.047383904457092285,
12.391999999999999,0.044571161270141602,
12.396000000000001,0.041277609765529633,
12.4,0.037286877632141113,
12.404,0.032623015344142914,
12.407999999999999,0.027502378448843956,
12.412000000000001,0.022117298096418381,
12.416,0.016732215881347656,
12.42,0.011467337608337402,
12.423999999999999,0.0063947839662432671,
12.428000000000001,0.0015866756439208984,
12.432,-0.0030291080474853516,
12.436,-0.0076448917388916016,
12.44,-0.012501081451773643,
12.444000000000001,-0.017886161804199219,
12.448,-0.02399246022105217,
12.452,-0.030964216217398643,
12.456,-0.038777392357587814,
12.460000000000001,-0.047335825860500336,
12.464,-0.056447189301252365,
12.468,-0.065895125269889832,
12.472,-0.075487300753593445,
12.476000000000001,-0.085151597857475281,
12.48,-0.094743773341178894,
12.484,-0.10416766256093979,
12.488,-0.11325498670339584,
12.492000000000001,-0.12188553810119629,
12.496,-0.12996315956115723,
12.5,-0.13727149367332458,
12.504,-0.14361819624900818,
12.507999999999999,-0.14861862361431122,
12.512,-0.15191218256950378,
12.516,-0.1531141996383667,
12.52,-0.15184006094932556,
12.523999999999999,-0.14777719974517822,
12.528,-0.14068524539470673,
12.532,-0.13046801090240479,
12.536,-0.11719763278961182,
12.539999999999999,-0.10113855451345444,
12.544,-0.082771584391593933,
12.548,-0.062769852578639984,
12.552,-0.042119026184082031,
12.555999999999999,-0.021876892074942589,
12.56,-0.0030291080474853516,
12.564,0.013679067604243755,
12.568,0.027959149330854416,
12.571999999999999,0.039883255958557129,
12.576000000000001,0.049787960946559906,
12.58,0.058178108185529709,
12.584,0.065438352525234222,
12.587999999999999,0.071785055100917816,
12.592000000000001,0.07709801197052002,
12.596,0.081232987344264984,
12.6,0.083997651934623718,
12.603999999999999,0.085416041314601898,
12.608000000000001,0.085776649415493011,
12.612,0.085367962718009949,
12.616,0.084550581872463226,
12.619999999999999,0.083540879189968109,
12.624000000000001,0.082483097910881042,
12.628,0.081401273608207703,
12.632,0.080223284661769867,
12.635999999999999,0.078949138522148132,
12.640000000000001,0.077578827738761902,
12.644,0.076256595551967621,
12.648,0.075174771249294281,
12.651999999999999,0.074453555047512054,
12.656000000000001,0.074213147163391113,
12.66,0.074405476450920105,
12.664,0.074838206171989441,
12.667999999999999,0.075270935893058777,
12.672000000000001,0.075367093086242676,
12.676,0.074814163148403168,
12.68,0.073419809341430664,
12.683999999999999,0.071304246783256531,
12.688000000000001,0.068779990077018738,
12.692,0.066279768943786621,
12.696,0.06423632800579071,
12.699999999999999,0.062938138842582703,
12.704000000000001,0.062553487718105316,
12.708,0.063010260462760925,
12.712,0.06394784152507782,
12.715999999999999,0.064933501183986664,
12.720000000000001,0.065534517168998718,
12.724,0.065534517168998718,
12.728,0.064909458160400391,
12.731999999999999,0.063851676881313324,
12.736000000000001,0.062697730958461761,
12.74,0.061760149896144867,
12.744,0.06120721623301506,
12.747999999999999,0.06108701229095459,
12.752000000000001,0.061183176934719086,
12.756,0.06120721623301506,
12.76,0.060942769050598145,
12.763999999999999,0.060389839112758636,
