Data Set 1:Time(s),Data Set 1:EKG(mV),Data Set 1:Heart Rate(bpm)
0,0.095080338418483734,94.488189697265625
0.0025000000000000001,0.10633131116628647,
0.0050000000000000001,0.11808713525533676,
0.0074999999999999997,0.129241943359375,
0.01,0.13868987560272217,
0.012500000000000001,0.14549335837364197,
0.014999999999999999,0.14878690242767334,
0.017500000000000002,0.13801674544811249,
0.02,0.12847265601158142,
0.022499999999999999,0.11722167581319809,
0.025000000000000001,0.10522544384002686,
0.0275,0.082483097910881042,
0.029999999999999999,0.07317940890789032,
0.032500000000000001,0.065847039222717285,
0.035000000000000003,0.060702364891767502,
0.037499999999999999,0.057697296142578125,
0.040000000000000001,0.056903958320617676,
0.042500000000000003,0.058298312127590179,
0.044999999999999998,0.060293674468994141,
0.047500000000000001,0.064356528222560883,
0.050000000000000003,0.065895125269889832,
0.052499999999999998,0.066952906548976898,
0.055,0.067505836486816406,
0.057500000000000002,0.067505836486816406,
0.059999999999999998,0.067193314433097839,
0.0625,0.066832706332206726,
0.065000000000000002,0.066424012184143066,
0.067500000000000004,0.065270066261291504,
0.070000000000000007,0.06428440660238266,
0.072499999999999995,0.06286601722240448,
0.074999999999999997,0.060846608132123947,
0.077499999999999999,0.054860513657331467,
0.080000000000000002,0.050941906869411469,
0.082500000000000004,0.046614609658718109,
0.085000000000000006,0.042119026184082031,
0.087499999999999994,0.034017365425825119,
0.089999999999999997,0.031132500618696213,
0.092499999999999999,0.029497742652893066,
0.095000000000000001,0.029329460114240646,
0.097500000000000003,0.03368079662322998,
0.10000000000000001,0.037863850593566895,
0.10249999999999999,0.042840242385864258,
0.105,0.048081081360578537,
0.1075,0.056807797402143478,
0.11,0.059259932488203049,
0.1125,0.06000518798828125,
0.115,0.059067606925964355,
0.11749999999999999,0.053394041955471039,
0.12,0.049812000244855881,
0.1225,0.046638648957014084,
0.125,0.044499039649963379,
0.1275,0.044619243592023849,
0.13,0.046879053115844727,
0.13250000000000001,0.050124526023864746,
0.13500000000000001,0.053658485412597656,
0.13750000000000001,0.058442555367946625,
0.14000000000000001,0.058226190507411957,
0.14249999999999999,0.055605769157409668,
0.14499999999999999,0.050485134124755859,
0.14749999999999999,0.034161608666181564,
0.14999999999999999,0.024425189942121506,
0.1525,0.01490513514727354,
0.155,0.0066832704469561577,
0.1575,-0.0024521350860595703,
0.16,-0.002307891845703125,
0.16250000000000001,0.0011058648815378547,
0.16500000000000001,0.0074285268783569336,
0.16750000000000001,0.026252269744873047,
0.17000000000000001,0.037070512771606445,
0.17249999999999999,0.047768555581569672,
0.17499999999999999,0.057745378464460373,
0.17749999999999999,0.073948703706264496,
0.17999999999999999,0.079982876777648926,
0.1825,0.084598660469055176,
0.185,0.087772011756896973,
0.1875,0.08907020092010498,
0.19,0.086449787020683289,
0.1925,0.081016622483730316,
0.19500000000000001,0.072337985038757324,
0.19750000000000001,0.060221552848815918,
0.20000000000000001,0.027237933129072189,
0.20250000000000001,0.0083661079406738281,
0.20499999999999999,-0.0099768247455358505,
0.20749999999999999,-0.025891661643981934,
0.20999999999999999,-0.043248932808637619,
0.21249999999999999,-0.04228731244802475,
0.215,-0.034498177468776703,
0.2175,-0.0025002162437886,
0.22,0.017910202965140343,
0.2225,0.038152337074279785,
0.22500000000000001,0.055918298661708832,
0.22750000000000001,0.077867314219474792,
0.23000000000000001,0.080896422266960144,
0.23250000000000001,0.079333782196044922,
0.23499999999999999,0.074501633644104004,
0.23749999999999999,0.061784189194440842,
0.23999999999999999,0.056807797402143478,
0.24249999999999999,0.053898893296718597,
0.245,0.053081512451171875,
0.2475,0.054884552955627441,
0.25,0.055317282676696777,
0.2525,0.05401909351348877,
0.255,0.050388973206281662,
0.25750000000000001,0.036397378891706467,
0.26000000000000001,0.027502378448843956,
0.26250000000000001,0.018967986106872559,
0.26500000000000001,0.012092391960322857,
0.26750000000000002,0.0070679187774658203,
0.27000000000000002,0.0096642971038818359,
0.27250000000000002,0.015265743248164654,
0.27500000000000002,0.023006796836853027,
0.27750000000000002,0.040556393563747406,
0.28000000000000003,0.04844168946146965,
0.28249999999999997,0.05505283921957016,
0.28499999999999998,0.060341756790876389,
0.28749999999999998,0.068828068673610687,
0.28999999999999998,0.073395773768424988,
0.29249999999999998,0.078973174095153809,
0.29499999999999998,0.085752606391906738,
0.29749999999999999,0.10169148445129395,
0.29999999999999999,0.10926425457000732,
0.30249999999999999,0.11522631347179413,
0.30499999999999999,0.11866410821676254,
0.3075,0.11662065982818604,
0.31,0.11193275451660156,
0.3125,0.10640343278646469,
0.315,0.10181169211864471,
0.3175,0.1000567302107811,
0.32000000000000001,0.1115240678191185,
0.32250000000000001,0.12635707855224609,
0.32500000000000001,0.14683961868286133,
0.32750000000000001,0.19751708209514618,
0.33000000000000002,0.22184610366821289,
0.33250000000000002,0.24064581096172333,
0.33500000000000002,0.2499014139175415,
0.33750000000000002,0.22509157657623291,
0.34000000000000002,0.18525640666484833,
0.34250000000000003,0.12489061057567596,
0.34499999999999997,0.043849945068359375,
0.34749999999999998,-0.17301976680755615,
0.34999999999999998,-0.30139625072479248,
0.35249999999999998,-0.43559056520462036,
0.35499999999999998,-0.5685347318649292,
0.35749999999999998,-0.69239163398742676,
0.35999999999999999,-0.88163876533508301,
0.36249999999999999,-0.93344610929489136,
0.36499999999999999,-0.95041871070861816,
0.36749999999999999,-0.87507569789886475,
0.37,-0.78718346357345581,
0.3725,-0.67296683788299561,
0.375,-0.54028713703155518,
0.3775,-0.39811134338378906,
0.38,-0.12123644351959229,
0.38250000000000001,-0.002091526985168457,
0.38500000000000001,0.096763178706169128,
0.38750000000000001,0.22504350543022156,
0.39000000000000001,0.25567114353179932,
0.39250000000000002,0.26773950457572937,
0.39500000000000002,0.26540756225585938,
0.39750000000000002,0.25329113006591797,
0.40000000000000002,0.21672546863555908,
0.40250000000000002,0.19895951449871063,
0.40500000000000003,0.18436691164970398,
0.40749999999999997,0.16763469576835632,
0.40999999999999998,0.16506235301494598,
0.41249999999999998,0.16523063182830811,
0.41499999999999998,0.16696155071258545,
0.41749999999999998,0.16898095607757568,
0.41999999999999998,0.1692454069852829,
0.42249999999999999,0.16559123992919922,
0.42499999999999999,0.15854737162590027,
0.42749999999999999,0.14782528579235077,
0.42999999999999999,0.11604368686676025,
0.4325,0.096210241317749023,
0.435,0.075150728225708008,
0.4375,0.054163336753845215,
0.44,0.017934244126081467,
0.4425,0.0051206350326538086,
0.44500000000000001,-0.0030771892052143812,
0.44750000000000001,-0.0064428648911416531,
0.45000000000000001,2.4040540665737353e-05,
0.45250000000000001,0.0080295410007238388,
0.45500000000000002,0.017597675323486328,
0.45750000000000002,0.027286013588309288,
0.46000000000000002,0.042215190827846527,
0.46250000000000002,0.045725107192993164,
0.46500000000000002,0.046037636697292328,
0.46750000000000003,0.043297015130519867,
0.46999999999999997,0.030723810195922852,
0.47249999999999998,0.022477906197309494,
0.47499999999999998,0.014063715934753418,
0.47749999999999998,0.0062986216507852077,
0.47999999999999998,-0.0051206350326538086,
0.48249999999999998,-0.0083180274814367294,
0.48499999999999999,-0.0099527835845947266,
0.48749999999999999,-0.010385513305664062,
0.48999999999999999,-0.0096162166446447372,
0.49249999999999999,-0.009447932243347168,
0.495,-0.010048946365714073,
0.4975,-0.011731783859431744,
0.5,-0.018775662407279015,
0.50249999999999995,-0.024040540680289268,
0.505,-0.030194919556379318,
0.50749999999999995,-0.036950312554836273,
0.51000000000000001,-0.051038067787885666,
0.51249999999999996,-0.057913661003112793,
0.51500000000000001,-0.064476728439331055,
0.51749999999999996,-0.070751309394836426,
0.52000000000000002,-0.082867741584777832,
0.52249999999999996,-0.089046165347099304,
0.52500000000000002,-0.09556114673614502,
0.52749999999999997,-0.10253290832042694,
0.53000000000000003,-0.11784672737121582,
0.53249999999999997,-0.12592434883117676,
0.53500000000000003,-0.13395389914512634,
0.53749999999999998,-0.1416468620300293,
0.54000000000000004,-0.15491724014282227,
0.54249999999999998,-0.16015808284282684,
0.54500000000000004,-0.16436517238616943,
0.54749999999999999,-0.16768276691436768,
0.55000000000000004,-0.17239472270011902,
0.55249999999999999,-0.17424583435058594,
0.55500000000000005,-0.17600080370903015,
0.5575,-0.17780384421348572,
0.56000000000000005,-0.1815541684627533,
0.5625,-0.18328508734703064,
0.56499999999999995,-0.18470346927642822,
0.5675,-0.18559297919273376,
0.56999999999999995,-0.18511216342449188,
0.57250000000000001,-0.18347740173339844,
0.57499999999999996,-0.18083295226097107,
0.57750000000000001,-0.17720282077789307,
0.57999999999999996,-0.16720196604728699,
0.58250000000000002,-0.16097545623779297,
0.58499999999999996,-0.15400370955467224,
0.58750000000000002,-0.14638285338878632,
0.58999999999999997,-0.12916982173919678,
0.59250000000000003,-0.11960168927907944,
0.59499999999999997,-0.10940849781036377,
0.59750000000000003,-0.098566219210624695,
0.59999999999999998,-0.075343057513237,
0.60250000000000004,-0.063154503703117371,
0.60499999999999998,-0.050797663629055023,
0.60750000000000004,-0.038464866578578949,
0.60999999999999999,-0.01461664866656065,
0.61250000000000004,-0.0034377973061054945,
0.61499999999999999,0.007091959472745657,
0.61750000000000005,0.016924541443586349,
0.62,0.034377973526716232,
0.62250000000000005,0.042046904563903809,
0.625,0.049066744744777679,
0.62749999999999995,0.055485568940639496,
0.63,0.066856741905212402,
0.63249999999999995,0.071881219744682312,
0.63500000000000001,0.076521039009094238,
0.63749999999999996,0.080800257623195648,
0.64000000000000001,0.088493227958679199,
0.64249999999999996,0.09197910875082016,
0.64500000000000002,0.095320746302604675,
0.64749999999999996,0.098566219210624695,
0.65000000000000002,0.10508120059967041,
0.65249999999999997,0.10847091674804688,
0.65500000000000003,0.11190871894359589,
0.65749999999999997,0.11532247066497803,
0.66000000000000003,0.12145280838012695,
0.66249999999999998,0.1237366646528244,
0.66500000000000004,0.12517909705638885,
0.66749999999999998,0.12561182677745819,
0.67000000000000004,0.12335201352834702,
0.67249999999999999,0.12089987844228745,
0.67500000000000004,0.11799097061157227,
0.67749999999999999,0.11500994861125946,
0.68000000000000005,0.11063456535339355,
0.6825,0.10996143519878387,
0.68500000000000005,0.11056244373321533,
0.6875,0.11241357028484344,
0.68999999999999995,0.11895259469747543,
0.6925,0.12282311916351318,
0.69499999999999995,0.12645325064659119,
0.69750000000000001,0.12933811545372009,
0.69999999999999996,0.1314777135848999,
0.70250000000000001,0.13032376766204834,
0.70499999999999996,0.12770335376262665,
0.70750000000000002,0.12380878627300262,
0.70999999999999996,0.11366367340087891,
0.71250000000000002,0.10820647329092026,
0.71499999999999997,0.1030377596616745,
0.71750000000000003,0.098470054566860199,
0.71999999999999997,0.092075273394584656,
0.72250000000000003,0.090440511703491211,
0.72499999999999998,0.089839503169059753,
0.72750000000000004,0.090127989649772644,
0.72999999999999998,0.092820525169372559,
0.73250000000000004,0.094839930534362793,
0.73499999999999999,0.097075700759887695,
0.73750000000000004,0.099335514008998871,
0.73999999999999999,0.10335028171539307,
0.74250000000000005,0.10484080016613007,
0.745,0.10587453842163086,
0.74750000000000005,0.10640343278646469,
0.75,0.10597070306539536,
0.75249999999999995,0.10515332221984863,
0.755,0.10404746234416962,
0.75749999999999995,0.10274927318096161,
0.76000000000000001,0.099816322326660156,
0.76249999999999996,0.09830176830291748,
0.76500000000000001,0.096715092658996582,
0.76749999999999996,0.095104381442070007,
0.77000000000000002,0.091690622270107269,
0.77249999999999996,0.089983746409416199,
0.77500000000000002,0.088348984718322754,
0.77749999999999997,0.086906552314758301,
0.78000000000000003,0.08491118997335434,
0.78249999999999997,0.084502503275871277,
0.78500000000000003,0.0845746248960495,
0.78749999999999998,0.085031390190124512,
0.79000000000000004,0.086978673934936523,
0.79249999999999998,0.088252827525138855,
0.79500000000000004,0.089599095284938812,
0.79749999999999999,0.090873241424560547,
0.80000000000000004,0.092940732836723328,
0.80249999999999999,0.093565784394741058,
0.80500000000000005,0.093854270875453949,
0.8075,0.093758106231689453,
0.81000000000000005,0.092532038688659668,
0.8125,0.091522336006164551,
0.81499999999999995,0.090392433106899261,
0.8175,0.089310608804225922,
0.81999999999999995,0.087820097804069519,
0.82250000000000001,0.087651811540126801,
0.82499999999999996,0.087892219424247742,
0.82750000000000001,0.088469192385673523,
0.82999999999999996,0.089839503169059753,
0.83250000000000002,0.090055868029594421,
0.83499999999999996,0.089551016688346863,
0.83750000000000002,0.088012419641017914,
0.83999999999999997,0.081257030367851257,
0.84250000000000003,0.076088309288024902,
0.84499999999999997,0.070030093193054199,
0.84750000000000003,0.063515111804008484,
0.84999999999999998,0.051206350326538086,
0.85250000000000004,0.046470366418361664,
0.85499999999999998,0.043224893510341644,
0.85750000000000004,0.041662257164716721,
0.85999999999999999,0.04336913675069809,
0.86250000000000004,0.045965515077114105,
0.86499999999999999,0.048994623124599457,
0.86750000000000005,0.05185544490814209,
0.87,0.054812431335449219,
0.87250000000000005,0.054067175835371017,
0.875,0.051566958427429199,
0.87749999999999995,0.04735986515879631,
0.88,0.034810703247785568,
0.88249999999999995,0.027261972427368164,
0.88500000000000001,0.019496878609061241,
0.88749999999999996,0.011996230110526085,
0.89000000000000001,-0.00045677027083002031,
0.89249999999999996,-0.004735986702144146,
0.89500000000000002,-0.0074044866487383842,
0.89749999999999996,-0.0083180274814367294,
0.90000000000000002,-0.0049042701721191406,
0.90249999999999997,-0.00072121620178222656,
0.90500000000000003,0.0048802299425005913,
0.90749999999999997,0.011611580848693848,
0.91000000000000003,0.027454297989606857,
0.91249999999999998,0.035916566848754883,
0.91500000000000004,0.044330757111310959,
0.91749999999999998,0.052432417869567871,
0.92000000000000004,0.066808663308620453,
0.92249999999999999,0.07277071475982666,
0.92500000000000004,0.077819228172302246,
0.92749999999999999,0.081882081925868988,
0.93000000000000005,0.08702675998210907,
0.9325,0.088060498237609863,
0.93500000000000005,0.088036462664604187,
0.9375,0.086906552314758301,
0.93999999999999995,0.081353187561035156,
0.9425,0.077194176614284515,
0.94499999999999995,0.072506271302700043,
0.94750000000000001,0.067842409014701843,
0.94999999999999996,0.06183227151632309,
0.95250000000000001,0.06245732307434082,
0.95499999999999996,0.066832706332206726,
0.95750000000000002,0.075847908854484558,
0.95999999999999996,0.10924021899700165,
0.96250000000000002,0.1330643892288208,
0.96499999999999997,0.16020616888999939,
0.96750000000000003,0.18876633048057556,
0.96999999999999997,0.23939570784568787,
0.97250000000000003,0.25514227151870728,
0.97499999999999998,0.25997442007064819,
0.97750000000000004,0.25062263011932373,
0.97999999999999998,0.17910203337669373,
0.98250000000000004,0.11383195966482162,
0.98499999999999999,0.028728445991873741,
0.98750000000000004,-0.074501633644104004,
0.98999999999999999,-0.32108545303344727,
0.99250000000000005,-0.45352479815483093,
0.995,-0.5827907919883728,
0.99750000000000005,-0.70104622840881348,
1,-0.87363326549530029,94.076652526855469
1.0024999999999999,-0.91486275196075439,
1.0049999999999999,-0.92024785280227661,
1.0075000000000001,-0.88839411735534668,
1.01,-0.7212643027305603,
1.0125,-0.59666216373443604,
1.0149999999999999,-0.45527976751327515,
1.0175000000000001,-0.30658900737762451,
1.02,-0.02461751364171505,
1.0225,0.09272436797618866,
1.0249999999999999,0.18693923950195312,
1.0275000000000001,0.25559902191162109,
1.03,0.31872949004173279,
1.0325,0.31937858462333679,
1.0349999999999999,0.30569952726364136,
1.0375000000000001,0.28288504481315613,
1.04,0.2285534143447876,
1.0425,0.20388782024383545,
1.0449999999999999,0.18342933058738708,
1.0475000000000001,0.16763469576835632,
1.05,0.1476089209318161,
1.0525,0.14111797511577606,
1.0549999999999999,0.13534824550151825,
1.0575000000000001,0.12941023707389832,
1.0600000000000001,0.1153465136885643,
1.0625,0.10731697082519531,
1.0649999999999999,0.099167227745056152,
1.0674999999999999,0.091402135789394379,
1.0700000000000001,0.078732773661613464,
1.0725,0.074333354830741882,
1.075,0.071232125163078308,
1.0774999999999999,0.06923675537109375,
1.0800000000000001,0.067241393029689789,
1.0825,0.066568255424499512,
1.085,0.065750882029533386,
1.0874999999999999,0.0646209716796875,
1.0900000000000001,0.061231255531311035,
1.0925,0.059043567627668381,
1.095,0.056687593460083008,
1.0974999999999999,0.054163336753845215,
1.1000000000000001,0.048874419182538986,
1.1025,0.046061675995588303,
1.105,0.043032567948102951,
1.1074999999999999,0.039787095040082932,
1.1100000000000001,0.032502811402082443,
1.1125,0.028560161590576172,
1.115,0.02461751364171505,
1.1174999999999999,0.020771026611328125,
1.1200000000000001,0.013967554084956646,
1.1225000000000001,0.011178851127624512,
1.125,0.0087507572025060654,
1.1274999999999999,0.0065871081314980984,
1.1299999999999999,0.0023800134658813477,
1.1325000000000001,-4.8081081331474707e-05,
1.135,-0.0029329459648579359,
1.1375,-0.0063226623460650444,
1.1399999999999999,-0.014760891906917095,
1.1425000000000001,-0.019641121849417686,
1.145,-0.024785798043012619,
1.1475,-0.030026635155081749,
1.1499999999999999,-0.040315985679626465,
1.1525000000000001,-0.045220255851745605,
1.155,-0.050028365105390549,
1.1575,-0.054860513657331467,
1.1599999999999999,-0.065149866044521332,
1.1625000000000001,-0.070991717278957367,
1.165,-0.077458620071411133,
1.1675,-0.084598660469055176,
1.1699999999999999,-0.10058562457561493,
1.1725000000000001,-0.10904788970947266,
1.175,-0.11741399765014648,
1.1775,-0.12544354796409607,
1.1799999999999999,-0.13917069137096405,
1.1825000000000001,-0.14448365569114685,
1.1850000000000001,-0.14869074523448944,
1.1875,-0.15181601047515869,
1.1899999999999999,-0.15547017753124237,
1.1924999999999999,-0.15645584464073181,
1.1950000000000001,-0.15715301036834717,
1.1975,-0.15782615542411804,
1.2,-0.15943686664104462,
1.2024999999999999,-0.16044656932353973,
1.2050000000000001,-0.1615043580532074,
1.2075,-0.16244193911552429,
1.21,-0.16311506927013397,
1.2124999999999999,-0.16244193911552429,
1.2150000000000001,-0.16087929904460907,
1.2175,-0.15830695629119873,
1.22,-0.14996489882469177,
1.2224999999999999,-0.14424324035644531,
1.2250000000000001,-0.13758401572704315,
1.2275,-0.13003528118133545,
1.23,-0.11272609233856201,
1.2324999999999999,-0.10308583825826645,
1.2350000000000001,-0.092940732836723328,
1.2375,-0.082338854670524597,
1.24,-0.060317717492580414,
1.2424999999999999,-0.049186944961547852,
1.2450000000000001,-0.038176380097866058,
1.2475000000000001,-0.027478337287902832,
1.25,-0.0073564052581787109,
1.2524999999999999,0.0018992027034983039,
1.2549999999999999,0.010577837936580181,
1.2575000000000001,0.018727581948041916,
1.26,0.033464431762695312,
1.2625,0.040099620819091797,
1.2649999999999999,0.046254001557826996,
1.2675000000000001,0.051951609551906586,
1.27,0.061976514756679535,
1.2725,0.066375933587551117,
1.2749999999999999,0.070390701293945312,
1.2775000000000001,0.074068903923034668,
1.28,0.080439649522304535,
1.2825,0.083060070872306824,
1.2849999999999999,0.085175633430480957,
1.2875000000000001,0.086642108857631683,
1.29,0.087195038795471191,
1.2925,0.086209379136562347,
1.2949999999999999,0.084406338632106781,
1.2975000000000001,0.082026325166225433,
1.3,0.07671336829662323,
1.3025,0.074525676667690277,
1.3049999999999999,0.07317940890789032,
1.3075000000000001,0.072914958000183105,
1.3100000000000001,0.076256595551967621,
1.3125,0.079742476344108582,
1.3149999999999999,0.084093809127807617,
1.3174999999999999,0.088925957679748535,
1.3200000000000001,0.098397932946681976,
1.3225,0.10222037881612778,
1.325,0.10508120059967041,
1.3274999999999999,0.10678808391094208,
1.3300000000000001,0.10702848434448242,
1.3325,0.10582645982503891,
1.335,0.10409554094076157,
1.3374999999999999,0.10200401395559311,
1.3400000000000001,0.097700759768486023,
1.3425,0.095681354403495789,
1.345,0.093854270875453949,
1.3474999999999999,0.092195473611354828,
1.3500000000000001,0.08907020092010498,
1.3525,0.087483525276184082,
1.355,0.085800692439079285,
1.3574999999999999,0.083949565887451172,
1.3600000000000001,0.079670354723930359,
1.3625,0.077266298234462738,
1.365,0.074766084551811218,
1.3674999999999999,0.072289906442165375,
1.3700000000000001,0.067986652255058289,
1.3725000000000001,0.066424012184143066,
1.375,0.065414309501647949,
1.3774999999999999,0.064981579780578613,
1.3799999999999999,0.065606638789176941,
1.3825000000000001,0.066303811967372894,
1.385,0.066928863525390625,
1.3875,0.067217350006103516,
1.3899999999999999,0.066063404083251953,
1.3925000000000001,0.064452692866325378,
1.395,0.062216918915510178,
1.3975,0.059572458267211914,
1.3999999999999999,0.054043136537075043,
1.4025000000000001,0.051711201667785645,
1.405,0.049956243485212326,
1.4075,0.048874419182538986,
1.4099999999999999,0.048682093620300293,
1.4125000000000001,0.049307148903608322,
1.415,0.050172608345746994,
1.4175,0.051110189408063889,
1.4199999999999999,0.052576661109924316,
1.4225000000000001,0.052985351532697678,
1.425,0.053177677094936371,
1.4275,0.053249798715114594,
1.4299999999999999,0.053369998931884766,
1.4325000000000001,0.053586363792419434,
1.4350000000000001,0.053898893296718597,
1.4375,0.054331623017787933,
1.4399999999999999,0.055004756897687912,
1.4424999999999999,0.05505283921957016,
1.4450000000000001,0.054788392037153244,
1.4475,0.05413929745554924,
1.45,0.051927566528320312,
1.4524999999999999,0.050557255744934082,
1.4550000000000001,0.049186944961547852,
1.4575,0.047888755798339844,
1.46,0.045797228813171387,
1.4624999999999999,0.04490773007273674,
1.4650000000000001,0.044042270630598068,
1.4675,0.043056607246398926,
1.47,0.040556393563747406,
1.4724999999999999,0.039113961160182953,
1.4750000000000001,0.037695568054914474,
1.4775,0.036517582833766937,
1.48,0.035820405930280685,
1.4824999999999999,0.036637783050537109,
1.4850000000000001,0.03829658031463623,
1.4875,0.040652554482221603,
1.49,0.046278040856122971,
1.4924999999999999,0.048682093620300293,
1.4950000000000001,0.050148569047451019,
1.4975000000000001,0.050244729965925217,
1.5,0.045148134231567383,
1.5024999999999999,0.039739012718200684,
1.5049999999999999,0.032598972320556641,
1.5075000000000001,0.024088621139526367,
1.51,0.0050004324875771999,
1.5125,-0.004399418830871582,
1.5149999999999999,-0.012837648391723633,
1.5175000000000001,-0.01983344554901123,
1.52,-0.027838945388793945,
1.5225,-0.028367837890982628,
1.5249999999999999,-0.026540756225585938,
1.5275000000000001,-0.022477906197309494,
1.53,-0.008822878822684288,
1.5325,-2.4040540665737353e-05,
1.5349999999999999,0.0093998517841100693,
1.5375000000000001,0.018992027267813683,
1.54,0.036782026290893555,
1.5425,0.044258635491132736,
1.5449999999999999,0.050533216446638107,
1.5475000000000001,0.055557690560817719,
1.55,0.062216918915510178,
1.5525,0.06423632800579071,
1.5549999999999999,0.06565471738576889,
1.5575000000000001,0.066592298448085785,
1.5600000000000001,0.06707310676574707,
1.5625,0.066375933587551117,
1.5649999999999999,0.064909458160400391,
1.5674999999999999,0.062529444694519043,
1.5700000000000001,0.055533647537231445,
1.5725,0.051711201667785645,
1.575,0.048585932701826096,
1.5774999999999999,0.04707137867808342,
1.5800000000000001,0.05293726921081543,
1.5825,0.06200055405497551,
1.585,0.075751744210720062,
1.5874999999999999,0.094070635735988617,
1.5900000000000001,0.14106988906860352,
1.5925,0.16657690703868866,
1.595,0.19042512774467468,
1.5974999999999999,0.20980179309844971,
1.6000000000000001,0.22307217121124268,
1.6025,0.21107594668865204,
1.605,0.18323700129985809,
1.6074999999999999,0.1378244161605835,
1.6100000000000001,-0.0078612565994262695,
1.6125,-0.10613898932933807,
1.615,-0.21771113574504852,
1.6174999999999999,-0.33808213472366333,
1.6200000000000001,-0.58105987310409546,
1.6225000000000001,-0.68957889080047607,
1.625,-0.77973091602325439,
1.6274999999999999,-0.84490478038787842,
1.6299999999999999,-0.88106179237365723,
1.6325000000000001,-0.84764540195465088,
1.635,-0.78107714653015137,
1.6375,-0.68539583683013916,
1.6399999999999999,-0.43345093727111816,
1.6425000000000001,-0.2938234806060791,
1.645,-0.1568404883146286,
1.6475,-0.030459364876151085,
1.6499999999999999,0.16648074984550476,
1.6525000000000001,0.23045262694358826,
1.655,0.27084073424339294,
1.6575,0.28971254825592041,
1.6599999999999999,0.27817308902740479,
1.6625000000000001,0.25699338316917419,
1.665,0.2315344512462616,
1.6675,0.20552258193492889,
1.6699999999999999,0.16131202876567841,
1.6725000000000001,0.14518082141876221,
1.675,0.13284802436828613,
1.6775,0.12349625676870346,
1.6799999999999999,0.1091921329498291,
1.6825000000000001,0.10234057903289795,
1.6850000000000001,0.094960138201713562,
1.6875,0.086954638361930847,
1.6899999999999999,0.070390701293945312,
1.6924999999999999,0.062890052795410156,
1.6950000000000001,0.05659143254160881,
1.6975,0.051831405609846115,
1.7,0.047143500298261642,
1.7024999999999999,0.046662688255310059,
1.7050000000000001,0.046806931495666504,
1.7075,0.047095417976379395,
1.71,0.046133797615766525,
1.7124999999999999,0.044402878731489182,
1.7150000000000001,0.041806500405073166,
1.7175,0.038536988198757172,
1.72,0.031132500618696213,
1.7224999999999999,0.027622580528259277,
1.7250000000000001,0.02461751364171505,
1.7275,0.022261541336774826,
1.73,0.01937667652964592,
1.7324999999999999,0.018655460327863693,
1.7350000000000001,0.018126567825675011,
1.7375,0.017573636025190353,
1.74,0.015626352280378342,
1.7424999999999999,0.013895432464778423,
1.7450000000000001,0.011515418998897076,
1.7475000000000001,0.0084863109514117241,
1.75,0.00048081082059070468,
1.7524999999999999,-0.00430325698107481,
1.7549999999999999,-0.0094960136339068413,
1.7575000000000001,-0.01492917537689209,
1.76,-0.026059946045279503,
1.7625,-0.031469069421291351,
1.7649999999999999,-0.036637783050537109,
1.7675000000000001,-0.041493974626064301,
1.77,-0.050052404403686523,
1.7725,-0.053778689354658127,
1.7749999999999999,-0.057192444801330566,
1.7775000000000001,-0.060413878411054611,
1.78,-0.066760584712028503,
1.7825,-0.070222422480583191,
1.7849999999999999,-0.074044868350028992,
1.7875000000000001,-0.078372165560722351,
1.79,-0.08873363584280014,
1.7925,-0.094815894961357117,
1.7949999999999999,-0.10140299797058105,
1.7975000000000001,-0.10839879512786865,
1.8,-0.1231837272644043,
1.8025,-0.13066034018993378,
1.8049999999999999,-0.13799270987510681,
1.8075000000000001,-0.14506062865257263,
1.8100000000000001,-0.15775403380393982,
1.8125,-0.16318719089031219,
1.8149999999999999,-0.16789913177490234,
1.8174999999999999,-0.17184178531169891,
1.8200000000000001,-0.17758747935295105,
1.8225,-0.17946264147758484,
1.825,-0.18078486621379852,
1.8274999999999999,-0.18162629008293152,
1.8300000000000001,-0.18201093375682831,
1.8325,-0.18153011798858643,
1.835,-0.18049637973308563,
1.8374999999999999,-0.17883758246898651,
1.8400000000000001,-0.17318806052207947,
1.8425,-0.16905307769775391,
1.845,-0.16402861475944519,
1.8474999999999999,-0.15813867747783661,
1.8500000000000001,-0.14407496154308319,
1.8525,-0.13611754775047302,
1.855,-0.12772738933563232,
1.8574999999999999,-0.11897663772106171,
1.8600000000000001,-0.10053753852844238,
1.8625,-0.090849205851554871,
1.865,-0.080824300646781921,
1.8674999999999999,-0.070414744317531586,
1.8700000000000001,-0.048585932701826096,
1.8725000000000001,-0.037286877632141113,
1.875,-0.025915702804923058,
1.8774999999999999,-0.014640688896179199,
1.8799999999999999,0.0066832704469561577,
1.8825000000000001,0.016347568482160568,
1.885,0.025170445442199707,
1.8875,0.040195785462856293,
1.8899999999999999,0.046494405716657639,
1.8925000000000001,0.052167974412441254,
1.895,0.057288609445095062,
1.8975,0.061976514756679535,
1.8999999999999999,0.070198379456996918,
1.9025000000000001,0.073684260249137878,
1.905,0.076641246676445007,
1.9075,0.079045295715332031,
1.9099999999999999,0.081882081925868988,
1.9125000000000001,0.082386933267116547,
1.915,0.082386933267116547,
1.9175,0.082026325166225433,
1.9199999999999999,0.080752179026603699,
1.9225000000000001,0.080030962824821472,
1.925,0.079333782196044922,
1.9275,0.077987514436244965,
1.9299999999999999,0.077338419854640961,
1.9325000000000001,0.076689325273036957,
1.9350000000000001,0.076136395335197449,
1.9375,0.07567962259054184,
1.9399999999999999,0.07563154399394989,
1.9424999999999999,0.076208516955375671,
1.9450000000000001,0.077266298234462738,
1.9475,0.078780852258205414,
1.95,0.082795619964599609,
1.9524999999999999,0.08491118997335434,
1.9550000000000001,0.086834430694580078,
1.9575,0.089118286967277527,
1.96,0.08919040858745575,
1.9624999999999999,0.088469192385673523,
1.9650000000000001,0.08702675998210907,
1.9675,0.084983311593532562,
1.97,0.080006919801235199,
1.9724999999999999,0.077530741691589355,
1.9750000000000001,0.075343057513237,
1.9775,0.072193741798400879,
1.98,0.071208082139492035,
1.9824999999999999,0.070510908961296082,
1.9850000000000001,0.069909892976284027,
1.9875,0.069284841418266296,
1.99,0.067505836486816406,
1.9924999999999999,0.066327854990959167,
1.9950000000000001,0.065053701400756836,
1.9975000000000001,0.062938138842582703,
2,0.06245732307434082,94.488189697265625
2.0024999999999999,0.062577530741691589,
2.0049999999999999,0.063346825540065765,
2.0074999999999998,0.064741179347038269,
2.0099999999999998,0.068755947053432465,
2.0125000000000002,0.070799395442008972,
2.0150000000000001,0.072386071085929871,
2.0175000000000001,0.073131322860717773,
2.02,0.070991717278957367,
2.0225,0.06786644458770752,
2.0249999999999999,0.063467025756835938,
2.0274999999999999,0.052119892090559006,
2.0299999999999998,0.046085715293884277,
2.0325000000000002,0.040556393563747406,
2.0350000000000001,0.035988688468933105,
2.0375000000000001,0.031084418296813965,
2.04,0.03094017505645752,
2.0425,0.032166242599487305,
2.0449999999999999,0.034402012825012207,
2.0474999999999999,0.037238799035549164,
2.0499999999999998,0.042816203087568283,
2.0525000000000002,0.044859647750854492,
2.0550000000000002,0.046085715293884277,
2.0575000000000001,0.046470366418361664,
2.0600000000000001,0.045268338173627853,
2.0625,0.044162474572658539,
2.0649999999999999,0.043080650269985199,
2.0674999999999999,0.041830539703369141,
2.0699999999999998,0.041854582726955414,
2.0724999999999998,0.042335391044616699,
2.0750000000000002,0.043104689568281174,
2.0775000000000001,0.044835608452558517,
2.0800000000000001,0.045460663735866547,
2.0825,0.045725107192993164,
2.085,0.045628946274518967,
2.0874999999999999,0.044523082673549652,
2.0899999999999999,0.043777823448181152,
2.0924999999999998,0.043104689568281174,
2.0950000000000002,0.04262387752532959,
2.0975000000000001,0.042407512664794922,
2.1000000000000001,0.042647920548915863,
2.1025,0.04291236400604248,
2.105,0.043032567948102951,
2.1074999999999999,0.042167108505964279,
2.1099999999999999,0.040941040962934494,
2.1124999999999998,0.039138000458478928,
2.1150000000000002,0.036806069314479828,
2.1175000000000002,0.034041404724121094,
2.1200000000000001,0.027959149330854416,
2.1225000000000001,0.025050243362784386,
2.125,0.022501945495605469,
2.1274999999999999,0.020506581291556358,
2.1299999999999999,0.018631419166922569,
2.1324999999999998,0.018847784027457237,
2.1349999999999998,0.019761323928833008,
2.1375000000000002,0.021227797493338585,
2.1400000000000001,0.024761756882071495,
2.1425000000000001,0.026204189285635948,
2.145,0.026997527107596397,
2.1475,0.026781162247061729,
2.1499999999999999,0.022646188735961914,
2.1524999999999999,0.018607378005981445,
2.1549999999999998,0.013414621353149414,
2.1575000000000002,0.0073564052581787109,
2.1600000000000001,-0.0057697296142578125,
2.1625000000000001,-0.011900067329406738,
2.165,-0.017164945602416992,
2.1675,-0.023703973740339279,
2.1699999999999999,-0.024593472480773926,
2.1724999999999999,-0.023824175819754601,
2.1749999999999998,-0.021492242813110352,
2.1775000000000002,-0.01783808134496212,
2.1800000000000002,-0.0075968108139932156,
2.1825000000000001,-0.0016107162227854133,
2.1850000000000001,0.0046638650819659233,
2.1875,0.011034607887268066,
2.1899999999999999,0.023583769798278809,
2.1924999999999999,0.029738148674368858,
2.1949999999999998,0.035748284310102463,
2.1974999999999998,0.041566096246242523,
2.2000000000000002,0.052071809768676758,
2.2025000000000001,0.056278906762599945,
2.2050000000000001,0.059380136430263519,
2.2075,0.06108701229095459,
2.21,0.059380136430263519,
2.2124999999999999,0.055942337960004807,
2.2149999999999999,0.051134228706359863,
2.2174999999999998,0.045580863952636719,
2.2200000000000002,0.035652123391628265,
2.2225000000000001,0.033416353166103363,
2.2250000000000001,0.034450095146894455,
2.2275,0.039690934121608734,
2.23,0.065005622804164886,
2.2324999999999999,0.085007354617118835,
2.2349999999999999,0.10902385413646698,
2.2374999999999998,0.13566076755523682,
2.2400000000000002,0.18879036605358124,
2.2425000000000002,0.21030664443969727,
2.2450000000000001,0.22470693290233612,
2.2475000000000001,0.22913038730621338,
2.25,0.19713243842124939,
2.2524999999999999,0.1562875509262085,
2.2549999999999999,0.096979543566703796,
2.2574999999999998,0.018943946808576584,
2.2599999999999998,-0.1884537935256958,
2.2625000000000002,-0.31175774335861206,
2.2650000000000001,-0.44169685244560242,
2.2675000000000001,-0.57173216342926025,
2.27,-0.80170392990112305,
2.2725,-0.88603818416595459,
2.2749999999999999,-0.94070637226104736,
2.2774999999999999,-0.96070808172225952,
2.2799999999999998,-0.88897109031677246,
2.2825000000000002,-0.80035769939422607,
2.2850000000000001,-0.6833043098449707,
2.2875000000000001,-0.54569625854492188,
2.29,-0.24670402705669403,
2.2925,-0.10448019206523895,
2.2949999999999999,0.02182881161570549,
2.2974999999999999,0.12628495693206787,
2.2999999999999998,0.25850793719291687,
2.3025000000000002,0.28687578439712524,
2.3050000000000002,0.29394370317459106,
2.3075000000000001,0.2843995988368988,
2.3100000000000001,0.23595790565013885,
2.3125,0.20660440623760223,
2.3149999999999999,0.17874142527580261,
2.3174999999999999,0.15455663204193115,
2.3199999999999998,0.1206594705581665,
2.3224999999999998,0.11044224351644516,
2.3250000000000002,0.10347048938274384,
2.3275000000000001,0.098590254783630371,
2.3300000000000001,0.091161727905273438,
2.3325,0.087291203439235687,
2.335,0.082939863204956055,
2.3374999999999999,0.078179836273193359,
2.3399999999999999,0.068203017115592957,
2.3424999999999998,0.06353914737701416,
2.3450000000000002,0.059332054108381271,
2.3475000000000001,0.055750012397766113,
2.3500000000000001,0.050388973206281662,
2.3525,0.04844168946146965,
2.355,0.046734809875488281,
2.3574999999999999,0.045124094933271408,
2.3599999999999999,0.041397809982299805,
2.3624999999999998,0.039017796516418457,
2.3650000000000002,0.036205053329467773,
2.3675000000000002,0.032983623445034027,
2.3700000000000001,0.025627216324210167,
2.3725000000000001,0.021804770454764366,
2.375,0.018150608986616135,
2.3774999999999999,0.014808973297476768,
2.3799999999999999,0.0094960136339068413,
2.3824999999999998,0.0075246891938149929,
2.3849999999999998,0.0059620542451739311,
2.3875000000000002,0.0046398243866860867,
2.3900000000000001,0.0021155676804482937,
2.3925000000000001,0.00060101354029029608,
2.395,-0.0012260675430297852,
2.3975,-0.0034858784638345242,
2.3999999999999999,-0.0092796487733721733,
2.4024999999999999,-0.01276552677154541,
2.4049999999999998,-0.016563933342695236,
2.4075000000000002,-0.020578702911734581,
2.4100000000000001,-0.028944810852408409,
2.4125000000000001,-0.033151905983686447,
2.415,-0.037310920655727386,
2.4175,-0.041349731385707855,
2.4199999999999999,-0.049114823341369629,
2.4224999999999999,-0.052841108292341232,
2.4249999999999998,-0.05647122859954834,
2.4275000000000002,-0.060101352632045746,
2.4300000000000002,-0.067529879510402679,
2.4325000000000001,-0.071520611643791199,
2.4350000000000001,-0.075847908854484558,
2.4375,-0.080607935786247253,
2.4399999999999999,-0.091882944107055664,
2.4424999999999999,-0.098494097590446472,
2.4449999999999998,-0.10568221658468246,
2.4474999999999998,-0.11339922994375229,
2.4500000000000002,-0.12953042984008789,
2.4525000000000001,-0.13746380805969238,
2.4550000000000001,-0.14494042098522186,
2.4575,-0.15174388885498047,
2.46,-0.16265830397605896,
2.4624999999999999,-0.16662499308586121,
2.4649999999999999,-0.16960601508617401,
2.4674999999999998,-0.17169754207134247,
2.4700000000000002,-0.17376503348350525,
2.4725000000000001,-0.17402946949005127,
2.4750000000000001,-0.17390927672386169,
2.4775,-0.17357270419597626,
2.48,-0.17234663665294647,
2.4824999999999999,-0.17152926325798035,
2.4849999999999999,-0.17049551010131836,
2.4874999999999998,-0.169149249792099,
2.4900000000000002,-0.16503831744194031,
2.4925000000000002,-0.16191303730010986,
2.4950000000000001,-0.15785019099712372,
2.4975000000000001,-0.15270552039146423,
2.5,-0.13895432651042938,
2.5024999999999999,-0.13037185370922089,
2.5049999999999999,-0.12082775682210922,
2.5074999999999998,-0.11044224351644516,
2.5099999999999998,-0.088084541261196136,
2.5125000000000002,-0.076497003436088562,
2.5150000000000001,-0.064909458160400391,
2.5175000000000001,-0.053466163575649261,
2.52,-0.031517148017883301,
2.5225,-0.021203756332397461,
2.5249999999999999,-0.011443297378718853,
2.5274999999999999,-0.002307891845703125,
2.5299999999999998,0.013967554084956646,
2.5325000000000002,0.021059513092041016,
2.5350000000000001,0.027502378448843956,
2.5375000000000001,0.033320188522338867,
2.54,0.043465297669172287,
2.5425,0.047960877418518066,
2.5449999999999999,0.052167974412441254,
2.5474999999999999,0.056158702820539474,
2.5499999999999998,0.063563190400600433,
2.5525000000000002,0.066928863525390625,
2.5550000000000002,0.070006057620048523,
2.5575000000000001,0.072746679186820984,
2.5600000000000001,0.076857611536979675,
2.5625,0.078155800700187683,
2.5649999999999999,0.078949138522148132,
2.5674999999999999,0.079309746623039246,
2.5699999999999998,0.079117417335510254,
2.5724999999999998,0.078804895281791687,
2.5750000000000002,0.078516408801078796,
2.5775000000000001,0.078348122537136078,
2.5800000000000001,0.078492365777492523,
2.5825,0.078804895281791687,
2.585,0.079189538955688477,
2.5874999999999999,0.079598233103752136,
2.5899999999999999,0.080175206065177917,
2.5924999999999998,0.08024732768535614,
2.5950000000000002,0.080151163041591644,
2.5975000000000001,0.079862676560878754,
2.6000000000000001,0.078780852258205414,
2.6025,0.078035593032836914,
2.605,0.077170133590698242,
2.6074999999999999,0.076208516955375671,
2.6099999999999999,0.074213147163391113,
2.6124999999999998,0.073251530528068542,
2.6150000000000002,0.072362028062343597,
2.6175000000000002,0.071568690240383148,
2.6200000000000001,0.070294544100761414,
2.6225000000000001,0.069837771356105804,
2.625,0.069477163255214691,
2.6274999999999999,0.06923675537109375,
2.6299999999999999,0.069116555154323578,
2.6324999999999998,0.069284841418266296,
2.6349999999999998,0.069573327898979187,
2.6375000000000002,0.070006057620048523,
2.6400000000000001,0.071087881922721863,
2.6425000000000001,0.071568690240383148,
2.645,0.071857176721096039,
2.6475,0.071809098124504089,
2.6499999999999999,0.070390701293945312,
2.6524999999999999,0.068924233317375183,
2.6549999999999998,0.066904827952384949,
2.6575000000000002,0.064404606819152832,
2.6600000000000001,0.058418512344360352,
2.6625000000000001,0.055245161056518555,
2.665,0.052192013710737228,
2.6675,0.049379270523786545,
2.6699999999999999,0.045268338173627853,
2.6724999999999999,0.044138431549072266,
2.6749999999999998,0.04370570182800293,
2.6775000000000002,0.043898027390241623,
2.6800000000000002,0.045797228813171387,
2.6825000000000001,0.047143500298261642,
2.6850000000000001,0.048465728759765625,
2.6875,0.049595635384321213,
2.6899999999999999,0.050749581307172775,
2.6924999999999999,0.05060533806681633,
2.6949999999999998,0.050052404403686523,
2.6974999999999998,0.049138866364955902,
2.7000000000000002,0.046782892197370529,
2.7025000000000001,0.045628946274518967,
2.7050000000000001,0.044643282890319824,
2.7075,0.043898027390241623,
2.71,0.043248932808637619,
2.7124999999999999,0.043297015130519867,
2.7149999999999999,0.043561458587646484,
2.7174999999999998,0.043946109712123871,
2.7200000000000002,0.04490773007273674,
2.7225000000000001,0.045388542115688324,
2.7250000000000001,0.045845311135053635,
2.7275,0.046254001557826996,
2.73,0.046999257057905197,
2.7324999999999999,0.047263704240322113,
2.7349999999999999,0.047407947480678558,
2.7374999999999998,0.047407947480678558,
2.7400000000000002,0.046734809875488281,
2.7425000000000002,0.046013593673706055,
2.7450000000000001,0.045051973313093185,
2.7475000000000001,0.043922066688537598,
2.75,0.041590135544538498,
2.7524999999999999,0.040628515183925629,
2.7549999999999999,0.039907298982143402,
2.7574999999999998,0.039450526237487793,
2.7599999999999998,0.039138000458478928,
2.7625000000000002,0.038969717919826508,
2.7650000000000001,0.038561027497053146,
2.7675000000000001,0.037743650376796722,
2.77,0.034522216767072678,
2.7725,0.032190285623073578,
2.7749999999999999,0.029593905434012413,
2.7774999999999999,0.026949446648359299,
2.7799999999999998,0.022742351517081261,
2.7825000000000002,0.021612446755170822,
2.7850000000000001,0.021299919113516808,
2.7875000000000001,0.021780729293823242,
2.79,0.024184783920645714,
2.7925,0.025434892624616623,
2.7949999999999999,0.026132067665457726,
2.7974999999999999,0.025891661643981934,
2.7999999999999998,0.021323960274457932,
2.8025000000000002,0.01675625704228878,
2.8050000000000002,0.010794202797114849,
2.8075000000000001,0.0036782026290893555,
2.8100000000000001,-0.012188553810119629,
2.8125,-0.019905567169189453,
2.8149999999999999,-0.026757121086120605,
2.8174999999999999,-0.03231048583984375,
2.8199999999999998,-0.038248501718044281,
2.8224999999999998,-0.03829658031463623,
2.8250000000000002,-0.036397378891706467,
2.8275000000000001,-0.032671093940734863,
2.8300000000000001,-0.020722946152091026,
2.8325,-0.013102094642817974,
2.835,-0.0048561892472207546,
2.8374999999999999,0.0037022433243691921,
2.8399999999999999,0.020362338051199913,
2.8424999999999998,0.027911067008972168,
2.8450000000000002,0.034642420709133148,
2.8475000000000001,0.04046022891998291,
2.8500000000000001,0.048946540802717209,
2.8525,0.051591001451015472,
2.855,0.053153634071350098,
2.8574999999999999,0.053658485412597656,
2.8599999999999999,0.051374636590480804,
2.8624999999999998,0.048658054322004318,
2.8650000000000002,0.045100055634975433,
2.8675000000000002,0.040989123284816742,
2.8700000000000001,0.03334423154592514,
2.8725000000000001,0.031372904777526855,
2.875,0.031853716820478439,
2.8774999999999999,0.035772323608398438,
2.8799999999999999,0.057000122964382172,
2.8824999999999998,0.075006484985351562,
2.8849999999999998,0.097604595124721527,
2.8875000000000002,0.12390494346618652,
2.8900000000000001,0.18092910945415497,
2.8925000000000001,0.20703713595867157,
2.895,0.22783219814300537,
2.8975,0.24028520286083221,
2.8999999999999999,0.22824089229106903,
2.9024999999999999,0.19855082035064697,
2.9049999999999998,0.15049378573894501,
2.9075000000000002,0.083156228065490723,
2.9100000000000001,-0.10729293525218964,
2.9125000000000001,-0.22617340087890625,
2.915,-0.35558363795280457,
2.9175,-0.48985004425048828,
2.9199999999999999,-0.74492019414901733,
2.9224999999999999,-0.85026586055755615,
2.9249999999999998,-0.93072950839996338,
2.9275000000000002,-0.98001265525817871,
2.9300000000000002,-0.96936267614364624,
2.9325000000000001,-0.90793907642364502,
2.9350000000000001,-0.81283473968505859,
2.9375,-0.6901317834854126,
2.9399999999999999,-0.39606791734695435,
2.9424999999999999,-0.24408361315727234,
2.9449999999999998,-0.10140299797058105,
2.9474999999999998,0.024136703461408615,
2.9500000000000002,0.2036474198102951,
2.9525000000000001,0.25391620397567749,
2.9550000000000001,0.27947127819061279,
2.9575,0.28401494026184082,
2.96,0.24985334277153015,
2.9624999999999999,0.22160570323467255,
2.9649999999999999,0.19198775291442871,
2.9674999999999998,0.16429305076599121,
2.9700000000000002,0.12193362414836884,
2.9725000000000001,0.10815839469432831,
2.9750000000000001,0.098614297807216644,
2.9775,0.092243552207946777,
2.98,0.084622703492641449,
2.9824999999999999,0.08166571706533432,
2.9849999999999999,0.078684687614440918,
2.9874999999999998,0.075535379350185394,
2.9900000000000002,0.069044433534145355,
2.9925000000000002,0.066063404083251953,
2.9950000000000001,0.063442990183830261,
2.9975000000000001,0.061159133911132812,
3,0.057264566421508789,94.240837097167969
3.0024999999999999,0.055389404296875,
3.0049999999999999,0.053321920335292816,
3.0074999999999998,0.051062107086181641,
3.0099999999999998,0.045869350433349609,
3.0125000000000002,0.043152771890163422,
3.0150000000000001,0.040532350540161133,
3.0175000000000001,0.038104258477687836,
3.02,0.034113526344299316,
3.0225,0.032478772103786469,
3.0249999999999999,0.030964216217398643,
3.0274999999999999,0.029401581734418869,
3.0299999999999998,0.02553105354309082,
3.0325000000000002,0.022982757538557053,
3.0350000000000001,0.019929608330130577,
3.0375000000000001,0.016347568482160568,
3.04,0.0079574193805456161,
3.0425,0.0033897161483764648,
3.0449999999999999,-0.0012020270805805922,
3.0474999999999999,-0.0056735677644610405,
3.0499999999999998,-0.013606945984065533,
3.0525000000000002,-0.016948580741882324,
3.0550000000000002,-0.019881527870893478,
3.0575000000000001,-0.022477906197309494,
3.0600000000000001,-0.027358135208487511,
3.0625,-0.030026635155081749,
3.0649999999999999,-0.03305574506521225,
3.0674999999999999,-0.036637783050537109,
3.0699999999999998,-0.045460663735866547,
3.0724999999999998,-0.050653420388698578,
3.0750000000000002,-0.056206785142421722,
3.0775000000000001,-0.061952471733093262,
3.0800000000000001,-0.073564052581787109,
3.0825,-0.079189538955688477,
3.085,-0.084670782089233398,
3.0874999999999999,-0.090007781982421875,
3.0899999999999999,-0.10053753852844238,
3.0924999999999998,-0.10589858144521713,
3.0950000000000002,-0.11140386760234833,
3.0975000000000001,-0.11712551116943359,
3.1000000000000001,-0.12919387221336365,
3.1025,-0.13549248874187469,
3.105,-0.14186322689056396,
3.1074999999999999,-0.14818589389324188,
3.1099999999999999,-0.16020616888999939,
3.1124999999999998,-0.16561529040336609,
3.1150000000000002,-0.17044743895530701,
3.1175000000000002,-0.17460644245147705,
3.1200000000000001,-0.18064062297344208,
3.1225000000000001,-0.18253982067108154,
3.125,-0.1837899386882782,
3.1274999999999999,-0.18446306884288788,
3.1299999999999999,-0.18472751975059509,
3.1324999999999998,-0.1845351904630661,
3.1349999999999998,-0.18427073955535889,
3.1375000000000002,-0.18391013145446777,
3.1400000000000001,-0.18246769905090332,
3.1425000000000001,-0.18100123107433319,
3.145,-0.17862121760845184,
3.1475,-0.17501513659954071,
3.1499999999999999,-0.16313910484313965,
3.1524999999999999,-0.15453259646892548,
3.1549999999999998,-0.14421920478343964,
3.1575000000000002,-0.13236722350120544,
3.1600000000000001,-0.10570625960826874,
3.1625000000000001,-0.091834865510463715,
3.165,-0.078300043940544128,
3.1675,-0.065486431121826172,
3.1699999999999999,-0.04291236400604248,
3.1724999999999999,-0.033272109925746918,
3.1749999999999998,-0.024521350860595703,
3.1775000000000002,-0.01646777056157589,
3.1800000000000002,-0.0013462703209370375,
3.1825000000000001,0.0061062974855303764,
3.1850000000000001,0.013655027374625206,
3.1875,0.021203756332397461,
3.1899999999999999,0.03584444522857666,
3.1924999999999999,0.04257579892873764,
3.1949999999999998,0.048634015023708344,
3.1974999999999998,0.053946971893310547,
3.2000000000000002,0.062096714973449707,
3.2025000000000001,0.065101787447929382,
3.2050000000000001,0.067577958106994629,
3.2075,0.069669485092163086,
3.21,0.073371730744838715,
3.2124999999999999,0.075126692652702332,
3.2149999999999999,0.076809525489807129,
3.2174999999999998,0.078300043940544128,
3.2200000000000002,0.080175206065177917,
3.2225000000000001,0.08024732768535614,
3.2250000000000001,0.079646311700344086,
3.2275,0.078372165560722351,
3.23,0.07426123321056366,
3.2324999999999999,0.071881219744682312,
3.2349999999999999,0.069621406495571136,
3.2374999999999998,0.067770287394523621,
3.2400000000000002,0.066087447106838226,
3.2425000000000002,0.066424012184143066,
3.2450000000000001,0.067553922533988953,
3.2475000000000001,0.069284841418266296,
3.25,0.073804460465908051,
3.2524999999999999,0.076064273715019226,
3.2549999999999999,0.078011557459831238,
3.2574999999999998,0.079405903816223145,
3.2599999999999998,0.080151163041591644,
3.2625000000000002,0.079429946839809418,
3.2650000000000001,0.078107714653015137,
3.2675000000000001,0.076328717172145844,
3.27,0.072241827845573425,
3.2725,0.070342622697353363,
3.2749999999999999,0.068779990077018738,
3.2774999999999999,0.067626044154167175,
3.2799999999999998,0.066520176827907562,
3.2825000000000002,0.06639997661113739,
3.2850000000000001,0.06639997661113739,
3.2875000000000001,0.066327854990959167,
3.29,0.065726839005947113,
3.2925,0.065101787447929382,
3.2949999999999999,0.064332485198974609,
3.2974999999999999,0.063442990183830261,
3.2999999999999998,0.061760149896144867,
3.3025000000000002,0.061111055314540863,
3.3050000000000002,0.060582160949707031,
3.3075000000000001,0.060149431228637695,
3.3100000000000001,0.059259932488203049,
3.3125,0.058610837906599045,
3.3149999999999999,0.057745378464460373,
3.3174999999999999,0.056615471839904785,
3.3199999999999998,0.053754650056362152,
3.3224999999999998,0.052216053009033203,
3.3250000000000002,0.050821702927350998,
3.3275000000000001,0.049715839326381683,
3.3300000000000001,0.048778258264064789,
3.3325,0.049018662422895432,
3.335,0.04969179630279541,
3.3374999999999999,0.050677459686994553,
3.3399999999999999,0.052793025970458984,
3.3424999999999998,0.053586363792419434,
3.3450000000000002,0.054043136537075043,
3.3475000000000001,0.054067175835371017,
3.3500000000000001,0.053081512451171875,
3.3525,0.052264135330915451,
3.355,0.051446758210659027,
3.3574999999999999,0.050749581307172775,
3.3599999999999999,0.050028365105390549,
3.3624999999999998,0.050004325807094574,
3.3650000000000002,0.050148569047451019,
3.3675000000000002,0.050340890884399414,
3.3700000000000001,0.050388973206281662,
3.3725000000000001,0.050076447427272797,
3.375,0.049499474465847015,
3.3774999999999999,0.048634015023708344,
3.3799999999999999,0.046326123178005219,
3.3824999999999998,0.045027934014797211,
3.3849999999999998,0.043729744851589203,
3.3875000000000002,0.042503677308559418,
3.3900000000000001,0.040556393563747406,
3.3925000000000001,0.039931338280439377,
3.395,0.039570730179548264,
3.3975,0.039474569261074066,
3.3999999999999999,0.040147703140974045,
3.4024999999999999,0.040868919342756271,
3.4049999999999998,0.041782461106777191,
3.4075000000000002,0.042840242385864258,
3.4100000000000001,0.045124094933271408,
3.4125000000000001,0.0461578369140625,
3.415,0.046975217759609222,
3.4175,0.047431986778974533,
3.4199999999999999,0.046927135437726974,
3.4224999999999999,0.045797228813171387,
3.4249999999999998,0.044066309928894043,
3.4275000000000002,0.041782461106777191,
3.4300000000000002,0.035964649170637131,
3.4325000000000001,0.032719176262617111,
3.4350000000000001,0.029473703354597092,
3.4375,0.026468634605407715,
3.4399999999999999,0.021684568375349045,
3.4424999999999999,0.020170014351606369,
3.4449999999999998,0.019328594207763672,
3.4474999999999998,0.019184350967407227,
3.4500000000000002,0.02074698731303215,
3.4525000000000001,0.022261541336774826,
3.4550000000000001,0.024016499519348145,
3.4575,0.025819540023803711,
3.46,0.028488039970397949,
3.4624999999999999,0.028800567612051964,
3.4649999999999999,0.028103392571210861,
3.4674999999999998,0.026204189285635948,
3.4700000000000002,0.018439095467329025,
3.4725000000000001,0.012621283531188965,
3.4750000000000001,0.0056735677644610405,
3.4775,-0.0021155676804482937,
3.48,-0.018655460327863693,
3.4824999999999999,-0.026492675766348839,
3.4849999999999999,-0.03339231014251709,
3.4874999999999998,-0.038873553276062012,
3.4900000000000002,-0.044018231332302094,
3.4925000000000002,-0.043248932808637619,
3.4950000000000001,-0.040219824761152267,
3.4975000000000001,-0.035099189728498459,
3.5,-0.020170014351606369,
3.5024999999999999,-0.011347135528922081,
3.5049999999999999,-0.0023559730034321547,
3.5074999999999998,0.0062745809555053711,
3.5099999999999998,0.021131634712219238,
3.5125000000000002,0.027021568268537521,
3.5150000000000001,0.031877756118774414,
3.5175000000000001,0.035868488252162933,
3.52,0.041902661323547363,
3.5225,0.044234596192836761,
3.5249999999999999,0.0461578369140625,
3.5274999999999999,0.04752814769744873,
3.5299999999999998,0.04798492044210434,
3.5325000000000002,0.046734809875488281,
3.5350000000000001,0.044475000351667404,
3.5375000000000001,0.041397809982299805,
3.54,0.035051107406616211,
3.5425,0.033464431762695312,
3.5449999999999999,0.034353934228420258,
3.5474999999999999,0.038777392357587814,
3.5499999999999998,0.061495702713727951,
3.5525000000000002,0.080439649522304535,
3.5550000000000002,0.10395129770040512,
3.5575000000000001,0.13087670505046844,
3.5600000000000001,0.18732389807701111,
3.5625,0.21172504127025604,
3.5649999999999999,0.22961120307445526,
3.5674999999999999,0.23783306777477264,
3.5699999999999998,0.21328768134117126,
3.5724999999999998,0.17551998794078827,
3.5750000000000002,0.11849582195281982,
3.5775000000000001,0.041686296463012695,
3.5800000000000001,-0.16717791557312012,
3.5825,-0.29360711574554443,
3.585,-0.42833030223846436,
3.5874999999999999,-0.5648806095123291,
3.5899999999999999,-0.81230580806732178,
3.5924999999999998,-0.90688133239746094,
3.5950000000000002,-0.97205519676208496,
3.5975000000000001,-1.0021539926528931,
3.6000000000000001,-0.94657224416732788,
3.6025,-0.86281502246856689,
3.605,-0.74790120124816895,
3.6074999999999999,-0.60962003469467163,
3.6099999999999999,-0.30166071653366089,
3.6124999999999998,-0.15212854743003845,
3.6150000000000002,-0.017549594864249229,
3.6175000000000002,0.095392867922782898,
3.6200000000000001,0.24259309470653534,
3.6225000000000001,0.2765623927116394,
3.625,0.28774124383926392,
3.6274999999999999,0.2807694673538208,
3.6299999999999999,0.2338663786649704,
3.6324999999999998,0.20398399233818054,
3.6349999999999998,0.17508725821971893,
3.6375000000000002,0.14960429072380066,
3.6400000000000001,0.11270205676555634,
3.6425000000000001,0.10087411105632782,
3.645,0.092291638255119324,
3.6475,0.085896849632263184,
3.6499999999999999,0.07630467414855957,
3.6524999999999999,0.072145663201808929,
3.6549999999999998,0.068299174308776855,
3.6575000000000002,0.064885422587394714,
3.6600000000000001,0.060173474252223969,
3.6625000000000001,0.059019528329372406,
3.665,0.058514676988124847,
3.6675,0.058346390724182129,
3.6699999999999999,0.057408809661865234,
3.6724999999999999,0.055894255638122559,
3.6749999999999998,0.053297877311706543,
3.6775000000000002,0.049619674682617188,
3.6800000000000002,0.039426486939191818,
3.6825000000000001,0.033536553382873535,
3.6850000000000001,0.027670662850141525,
3.6875,0.022237500175833702,
3.6899999999999999,0.014015635475516319,
3.6924999999999999,0.011563500389456749,
3.6949999999999998,0.010217229835689068,
3.6974999999999998,0.0097845001146197319,
3.7000000000000002,0.010577837936580181,
3.7025000000000001,0.011106729507446289,
3.7050000000000001,0.011275013908743858,
3.7075,0.010818243026733398,
3.71,0.0075246891938149929,
3.7124999999999999,0.0046398243866860867,
3.7149999999999999,0.0010097026824951172,
3.7174999999999998,-0.0031733512878417969,
3.7200000000000002,-0.012525121681392193,
3.7225000000000001,-0.017309188842773438,
3.7250000000000001,-0.021949013695120811,
3.7275,-0.026348432525992393,
3.73,-0.034113526344299316,
3.7324999999999999,-0.037503242492675781,
3.7349999999999999,-0.040652554482221603,
3.7374999999999998,-0.043681662529706955,
3.7400000000000002,-0.050196647644042969,
3.7425000000000002,-0.054043136537075043,
3.7450000000000001,-0.058514676988124847,
3.7475000000000001,-0.063683390617370605,
3.75,-0.076184473931789398,
3.7524999999999999,-0.083372592926025391,
3.7549999999999999,-0.090993449091911316,
3.7574999999999998,-0.098830662667751312,
3.7599999999999998,-0.11438488960266113,
3.7625000000000002,-0.12174129486083984,
3.7650000000000001,-0.12868902087211609,
3.7675000000000001,-0.13513188064098358,
3.77,-0.14655113220214844,
3.7725,-0.15155157446861267,
3.7749999999999999,-0.15611927211284637,
3.7774999999999999,-0.16032636165618896,
3.7799999999999998,-0.1677548885345459,
3.7825000000000002,-0.17102441191673279,
3.7850000000000001,-0.17405351996421814,
3.7875000000000001,-0.17686626315116882,
3.79,-0.18181860446929932,
3.7925,-0.18400630354881287,
3.7949999999999999,-0.18595358729362488,
3.7974999999999999,-0.18768450617790222,
3.7999999999999998,-0.19025683403015137,
3.8025000000000002,-0.19095401465892792,
3.8050000000000002,-0.19109825789928436,
3.8075000000000001,-0.19056937098503113,
3.8100000000000001,-0.18701136112213135,
3.8125,-0.18374185264110565,
3.8149999999999999,-0.17939051985740662,
3.8174999999999999,-0.17390927672386169,
3.8199999999999998,-0.15958110988140106,
3.8224999999999998,-0.15083035826683044,
3.8250000000000002,-0.14116606116294861,
3.8275000000000001,-0.13066034018993378,
3.8300000000000001,-0.10772566497325897,
3.8325,-0.095609232783317566,
3.835,-0.083324514329433441,
3.8374999999999999,-0.07106383889913559,
3.8399999999999999,-0.047456026077270508,
3.8424999999999998,-0.036445461213588715,
3.8450000000000002,-0.026083987206220627,
3.8475000000000001,-0.016443729400634766,
3.8500000000000001,0.0008895000210031867,
3.8525,0.0087507572025060654,
3.855,0.016179284080862999,
3.8574999999999999,0.023271244019269943,
3.8599999999999999,0.036397378891706467,
3.8624999999999998,0.042311351746320724,
3.8650000000000002,0.047672390937805176,
3.8675000000000002,0.052336256951093674,
3.8700000000000001,0.059308014810085297,
3.8725000000000001,0.061615906655788422,
3.875,0.06320258229970932,
3.8774999999999999,0.06428440660238266,
3.8799999999999999,0.065630674362182617,
3.8824999999999998,0.066279768943786621,
3.8849999999999998,0.067145228385925293,
3.8875000000000002,0.068299174308776855,
3.8900000000000001,0.071472525596618652,
3.8925000000000001,0.073347687721252441,
3.895,0.075174771249294281,
3.8975,0.076857611536979675,
3.8999999999999999,0.079045295715332031,
3.9024999999999999,0.079357825219631195,
3.9049999999999998,0.079093381762504578,
3.9075000000000002,0.078348122537136078,
3.9100000000000001,0.075799822807312012,
3.9125000000000001,0.074333354830741882,
3.915,0.073011122643947601,
3.9175,0.071929298341274261,
3.9199999999999999,0.070919595658779144,
3.9224999999999999,0.071039795875549316,
3.9249999999999998,0.071496568620204926,
3.9275000000000002,0.072145663201808929,
3.9300000000000002,0.073612138628959656,
3.9325000000000001,0.074116989970207214,
3.9350000000000001,0.074309311807155609,
3.9375,0.074068903923034668,
3.9399999999999999,0.072241827845573425,
3.9424999999999999,0.070703230798244476,
3.9449999999999998,0.068828068673610687,
3.9474999999999998,0.06673654168844223,
3.9500000000000002,0.062409244477748871,
3.9525000000000001,0.060389839112758636,
3.9550000000000001,0.05858679860830307,
3.9575,0.057048201560974121,
3.96,0.054836474359035492,
3.9624999999999999,0.054211419075727463,
3.9649999999999999,0.053922932595014572,
3.9674999999999998,0.053995054215192795,
3.9700000000000002,0.055149000138044357,
3.9725000000000001,0.056230824440717697,
3.9750000000000001,0.057529013603925705,
3.9775,0.058947406709194183,
3.98,0.061351459473371506,
3.9824999999999999,0.06200055405497551,
3.9849999999999999,0.06200055405497551,
3.9874999999999998,0.061327420175075531,
3.9900000000000002,0.057961743324995041,
3.9925000000000002,0.055509608238935471,
3.9950000000000001,0.052817068994045258,
3.9975000000000001,0.050148569047451019,
4,0.045677028596401215,93.203880310058594
4.0025000000000004,0.044186513870954514,
4.0049999999999999,0.043248932808637619,
4.0075000000000003,0.042840242385864258,
4.0099999999999998,0.043008528649806976,
4.0125000000000002,0.043297015130519867,
4.0149999999999997,0.04353741928935051,
4.0175000000000001,0.043633580207824707,
4.0199999999999996,0.043152771890163422,
4.0225,0.042647920548915863,
4.0250000000000004,0.042094986885786057,
4.0274999999999999,0.04154205322265625,
4.0300000000000002,0.040917001664638519,
4.0324999999999998,0.040917001664638519,
4.0350000000000001,0.041109323501586914,
4.0374999999999996,0.041421853005886078,
4.04,0.042022865265607834,
4.0425000000000004,0.042094986885786057,
4.0449999999999999,0.041950743645429611,
4.0475000000000003,0.04154205322265625,
4.0499999999999998,0.040195785462856293,
4.0525000000000002,0.039450526237487793,
4.0549999999999997,0.038825474679470062,
4.0575000000000001,0.038464866578578949,
4.0599999999999996,0.038825474679470062,
4.0625,0.039570730179548264,
4.0650000000000004,0.040652554482221603,
4.0674999999999999,0.041998825967311859,
4.0700000000000003,0.045027934014797211,
4.0724999999999998,0.046494405716657639,
4.0750000000000002,0.047720473259687424,
4.0774999999999997,0.04860997200012207,
4.0800000000000001,0.048922501504421234,
4.0824999999999996,0.04815320298075676,
4.085,0.046662688255310059,
4.0875000000000004,0.044426918029785156,
4.0899999999999999,0.037887893617153168,
4.0925000000000002,0.033825039863586426,
4.0949999999999998,0.029425621032714844,
4.0975000000000001,0.024978121742606163,
4.0999999999999996,0.016828378662467003,
4.1025,0.013655027374625206,
4.1050000000000004,0.011299054138362408,
4.1074999999999999,0.0099047031253576279,
4.1100000000000003,0.0099768247455358505,
4.1124999999999998,0.011250972747802734,
4.1150000000000002,0.013078054413199425,
4.1174999999999997,0.015193621627986431,
4.1200000000000001,0.019040107727050781,
4.1224999999999996,0.020194053649902344,
4.125,0.020506581291556358,
4.1275000000000004,0.019809406250715256,
4.1299999999999999,0.01492917537689209,
4.1325000000000003,0.0107701625674963,
4.1349999999999998,0.0055774054490029812,
4.1375000000000002,-0.00048081082059070468,
4.1399999999999997,-0.014328162185847759,
4.1425000000000001,-0.021516283974051476,
4.1449999999999996,-0.028439959511160851,
4.1475,-0.034738581627607346,
4.1500000000000004,-0.044018231332302094,
4.1524999999999999,-0.046422284096479416,
4.1550000000000002,-0.047047339379787445,
4.1574999999999998,-0.04582127183675766,
4.1600000000000001,-0.037935972213745117,
4.1624999999999996,-0.031661391258239746,
4.165,-0.024208825081586838,
4.1675000000000004,-0.015914838761091232,
4.1699999999999999,0.0017068784218281507,
4.1725000000000003,0.010385513305664062,
4.1749999999999998,0.018559297546744347,
4.1775000000000002,0.026035904884338379,
4.1799999999999997,0.038320623338222504,
4.1825000000000001,0.042936407029628754,
4.1849999999999996,0.046470366418361664,
4.1875,0.048898458480834961,
4.1900000000000004,0.050388973206281662,
4.1924999999999999,0.049427352845668793,
4.1950000000000003,0.047431986778974533,
4.1974999999999998,0.041133366525173187,
4.2000000000000002,0.037575364112854004,
4.2024999999999997,0.034522216767072678,
4.2050000000000001,0.032767258584499359,
4.2074999999999996,0.036661826074123383,
4.21,0.044018231332302094,
4.2125000000000004,0.055798094719648361,
4.2149999999999999,0.072169706225395203,
4.2175000000000002,0.092868611216545105,
4.2199999999999998,0.14318546652793884,
4.2225000000000001,0.16929349303245544,
4.2249999999999996,0.19282917678356171,
4.2275,0.21085958182811737,
4.2300000000000004,0.21775922179222107,
4.2324999999999999,0.20049810409545898,
4.2350000000000003,0.16595184803009033,
4.2374999999999998,0.11238952726125717,
4.2400000000000002,-0.053321920335292816,
4.2424999999999997,-0.16285061836242676,
4.2450000000000001,-0.28581798076629639,
4.2474999999999996,-0.41703125834465027,
4.25,-0.67666912078857422,
4.2525000000000004,-0.78937113285064697,
4.2549999999999999,-0.88000398874282837,
4.2575000000000003,-0.96871358156204224,
4.2599999999999998,-0.95842421054840088,
4.2625000000000002,-0.91039121150970459,
4.2649999999999997,-0.82721096277236938,
4.2675000000000001,-0.57908856868743896,
4.2699999999999996,-0.43102285265922546,
4.2725,-0.27987998723983765,
4.2750000000000004,-0.1352040022611618,
4.2774999999999999,-0.0053850812837481499,
4.2800000000000002,0.18672287464141846,
4.2824999999999998,0.2437470406293869,
4.2850000000000001,0.27545651793479919,
4.2874999999999996,0.28500062227249146,
4.29,0.25658470392227173,
4.2925000000000004,0.22917847335338593,
4.2949999999999999,0.19944033026695251,
4.2975000000000003,0.14633476734161377,
4.2999999999999998,0.12666961550712585,
4.3025000000000002,0.11212508380413055,
4.3049999999999997,0.10205209255218506,
4.3075000000000001,0.090777084231376648,
4.3099999999999996,0.087098881602287292,
4.3125,0.083468757569789886,
4.3150000000000004,0.079357825219631195,
4.3174999999999999,0.069068476557731628,
4.3200000000000003,0.06325066089630127,
4.3224999999999998,0.05738477036356926,
4.3250000000000002,0.051783323287963867,
4.3274999999999997,0.046662688255310059,
4.3300000000000001,0.038416784256696701,
4.3324999999999996,0.035243432968854904,
4.335,0.032574933022260666,
4.3375000000000004,0.03031512163579464,
4.3399999999999999,0.026516716927289963,
4.3425000000000002,0.024761756882071495,
4.3449999999999998,0.023006796836853027,
4.3475000000000001,0.019352635368704796,
4.3499999999999996,0.017357271164655685,
4.3525,0.01521766185760498,
4.3550000000000004,0.012933811172842979,
4.3574999999999999,0.010481676086783409,
4.3600000000000003,0.0053369998931884766,
4.3624999999999998,0.0027165811043232679,
4.3650000000000002,0.00019232432532589883,
4.3674999999999997,-0.0044234595261514187,
4.3700000000000001,-0.0064909458160400391,
4.3724999999999996,-0.0084141893312335014,
4.375,-0.010361473076045513,
4.3775000000000004,-0.01245300006121397,
4.3799999999999999,-0.017669796943664551,
4.3825000000000003,-0.021059513092041016,
4.3849999999999998,-0.025002162903547287,
4.3875000000000002,-0.034353934228420258,
4.3899999999999997,-0.039402447640895844,
4.3925000000000001,-0.044450961053371429,
4.3949999999999996,-0.049235027283430099,
4.3975,-0.053658485412597656,
4.4000000000000004,-0.06103893369436264,
4.4024999999999999,-0.064092084765434265,
4.4050000000000002,-0.066952906548976898,
4.4074999999999998,-0.07277071475982666,
4.4100000000000001,-0.076184473931789398,
4.4124999999999996,-0.080127120018005371,
4.415,-0.084742903709411621,
4.4175000000000004,-0.096041962504386902,
4.4199999999999999,-0.10265310853719711,
4.4225000000000003,-0.10981719195842743,
4.4249999999999998,-0.11736591905355453,
4.4275000000000002,-0.13311247527599335,
4.4299999999999997,-0.14102181792259216,
4.4325000000000001,-0.14876286685466766,
4.4349999999999996,-0.15616735816001892,
4.4375,-0.16953389346599579,
4.4400000000000004,-0.1753036230802536,
4.4424999999999999,-0.18032810091972351,
4.4450000000000003,-0.18463134765625,
4.4474999999999998,-0.19102613627910614,
4.4500000000000002,-0.1932138204574585,
4.4524999999999997,-0.19484858214855194,
4.4550000000000001,-0.19597849249839783,
4.4574999999999996,-0.1970362663269043,
4.46,-0.1970362663269043,
4.4625000000000004,-0.19665162265300751,
4.4649999999999999,-0.19583424925804138,
4.4675000000000002,-0.19244453310966492,
4.4699999999999998,-0.18967986106872559,
4.4725000000000001,-0.186121866106987,
4.4749999999999996,-0.18167436122894287,
4.4775,-0.17037531733512878,
4.4800000000000004,-0.16359588503837585,
4.4824999999999999,-0.15621542930603027,
4.4850000000000003,-0.14823397994041443,
4.4874999999999998,-0.13080458343029022,
4.4900000000000002,-0.121404729783535,
4.4924999999999997,-0.11154811084270477,
4.4950000000000001,-0.10128279775381088,
4.4974999999999996,-0.07983863353729248,
4.5,-0.06890019029378891,
4.5025000000000004,-0.058009825646877289,
4.5049999999999999,-0.047335825860500336,
4.5075000000000003,-0.027165811508893967,
4.5099999999999998,-0.017790000885725021,
4.5125000000000002,-0.00891904067248106,
4.5149999999999997,-0.00050485134124755859,
4.5175000000000001,0.015313824638724327,
4.5199999999999996,0.022838514298200607,
4.5225,0.03014683723449707,
4.5250000000000004,0.037214756011962891,
4.5274999999999999,0.050148569047451019,
4.5300000000000002,0.055750012397766113,
4.5324999999999998,0.060558121651411057,
4.5350000000000001,0.064404606819152832,
4.5374999999999996,0.06890019029378891,
4.54,0.069573327898979187,
4.5425000000000004,0.069332920014858246,
4.5449999999999999,0.068347260355949402,
4.5475000000000003,0.065173909068107605,
4.5499999999999998,0.06353914737701416,
4.5525000000000002,0.06212075799703598,
4.5549999999999997,0.061159133911132812,
4.5575000000000001,0.060702364891767502,
4.5599999999999996,0.061231255531311035,
4.5625,0.062144797295331955,
4.5650000000000004,0.063322782516479492,
4.5674999999999999,0.064669057726860046,
4.5700000000000003,0.067457757890224457,
4.5724999999999998,0.068755947053432465,
4.5750000000000002,0.069909892976284027,
4.5774999999999997,0.071712933480739594,
4.5800000000000001,0.072289906442165375,
4.5824999999999996,0.072650514543056488,
4.585,0.07277071475982666,
4.5875000000000004,0.07243414968252182,
4.5899999999999999,0.072025462985038757,
4.5925000000000002,0.071544647216796875,
4.5949999999999998,0.071039795875549316,
4.5975000000000001,0.070030093193054199,
4.5999999999999996,0.069621406495571136,
4.6025,0.069260798394680023,
4.6050000000000004,0.068924233317375183,
4.6074999999999999,0.068323217332363129,
4.6100000000000003,0.067962609231472015,
4.6124999999999998,0.067505836486816406,
4.6150000000000002,0.066880784928798676,
4.6174999999999997,0.064933501183986664,
4.6200000000000001,0.063515111804008484,
4.6224999999999996,0.061760149896144867,
4.625,0.059692662209272385,
4.6275000000000004,0.054908595979213715,
4.6299999999999999,0.052360296249389648,
4.6325000000000003,0.049932204186916351,
4.6349999999999998,0.047768555581569672,
4.6375000000000002,0.044643282890319824,
4.6399999999999997,0.043898027390241623,
4.6425000000000001,0.043753784149885178,
4.6449999999999996,0.044138431549072266,
4.6475,0.046229958534240723,
4.6500000000000004,0.047672390937805176,
4.6524999999999999,0.049162905663251877,
4.6550000000000002,0.050485134124755859,
4.6574999999999998,0.052119892090559006,
4.6600000000000001,0.052167974412441254,
4.6624999999999996,0.051615040749311447,
4.665,0.050461094826459885,
4.6675000000000004,0.046782892197370529,
4.6699999999999999,0.044547121971845627,
4.6725000000000003,0.042311351746320724,
4.6749999999999998,0.040219824761152267,
4.6775000000000002,0.037046473473310471,
4.6799999999999997,0.036084853112697601,
4.6825000000000001,0.035580001771450043,
4.6849999999999996,0.035387676209211349,
4.6875,0.03567616268992424,
4.6900000000000004,0.035916566848754883,
4.6924999999999999,0.036060810089111328,
4.6950000000000003,0.036060810089111328,
4.6974999999999998,0.035604041069746017,
4.7000000000000002,0.035171311348676682,
4.7024999999999997,0.034666460007429123,
4.7050000000000001,0.034209690988063812,
4.7074999999999996,0.033560596406459808,
4.71,0.033488474786281586,
4.7125000000000004,0.033608675003051758,
4.7149999999999999,0.033897161483764648,
4.7175000000000002,0.034714542329311371,
4.7199999999999998,0.035147272050380707,
4.7225000000000001,0.035459797829389572,
4.7249999999999996,0.03567616268992424,
4.7275,0.035628080368041992,
4.7300000000000004,0.035363636910915375,
4.7324999999999999,0.034978985786437988,
4.7350000000000003,0.034402012825012207,
4.7374999999999998,0.032767258584499359,
4.7400000000000002,0.031637351959943771,
4.7424999999999997,0.030291080474853516,
4.7450000000000001,0.028680365532636642,
4.7474999999999996,0.024978121742606163,
4.75,0.023054879158735275,
4.7525000000000004,0.021251838654279709,
4.7549999999999999,0.019713243469595909,
4.7575000000000003,0.017862122505903244,
4.7599999999999998,0.017693838104605675,
4.7625000000000002,0.017958283424377441,
4.7649999999999997,0.018559297546744347,
4.7675000000000001,0.019905567169189453,
4.7699999999999996,0.020073851570487022,
4.7725,0.019520919770002365,
4.7750000000000004,0.017982324585318565,
4.7774999999999999,0.011347135528922081,
4.7800000000000002,0.0062265000306069851,
4.7824999999999998,0.00012020270514767617,
4.7850000000000001,-0.006611148826777935,
4.7874999999999996,-0.020170014351606369,
4.79,-0.025915702804923058,
4.7925000000000004,-0.030363202095031738,
4.7949999999999999,-0.033079784363508224,
4.7975000000000003,-0.032598972320556641,
4.7999999999999998,-0.029401581734418869,
4.8025000000000002,-0.024497311562299728,
4.8049999999999997,-0.018246769905090332,
4.8075000000000001,-0.01105864904820919,
4.8099999999999996,0.0045436620712280273,
4.8125,0.012212594971060753,
4.8150000000000004,0.019448798149824142,
4.8174999999999999,0.032094120979309082,
4.8200000000000003,0.037431120872497559,
4.8224999999999998,0.042119026184082031,
4.8250000000000002,0.046133797615766525,
4.8274999999999997,0.051999688148498535,
4.8300000000000001,0.053610406816005707,
4.8324999999999996,0.054163336753845215,
4.835,0.053466163575649261,
4.8375000000000004,0.048345528542995453,
4.8399999999999999,0.044306717813014984,
4.8425000000000002,0.039907298982143402,
4.8449999999999998,0.035916566848754883,
4.8475000000000001,0.03322402760386467,
4.8499999999999996,0.036685865372419357,
4.8525,0.044571161270141602,
4.8550000000000004,0.057408809661865234,
4.8574999999999999,0.097532473504543304,
4.8600000000000003,0.12301544845104218,
4.8624999999999998,0.14982065558433533,
4.8650000000000002,0.17544786632061005,
4.8674999999999997,0.21105191111564636,
4.8700000000000001,0.21444162726402283,
4.8724999999999996,0.20400802791118622,
4.875,0.17703454196453094,
4.8775000000000004,0.066640377044677734,
4.8799999999999999,-0.017453432083129883,
4.8825000000000003,-0.11892855167388916,
4.8849999999999998,-0.23458759486675262,
4.8875000000000002,-0.48787873983383179,
4.8899999999999997,-0.61219239234924316,
4.8925000000000001,-0.7248222827911377,
4.8949999999999996,-0.81807553768157959,
4.8975,-0.9198872447013855,
4.9000000000000004,-0.91935837268829346,
4.9024999999999999,-0.88235998153686523,
4.9050000000000002,-0.81052684783935547,
4.9074999999999998,-0.5822378396987915,
4.9100000000000001,-0.44095158576965332,
4.9124999999999996,-0.29377540946006775,
4.915,-0.15010914206504822,
4.9175000000000004,0.09414275735616684,
4.9199999999999999,0.18316487967967987,
4.9225000000000003,0.24639150500297546,
4.9249999999999998,0.28413516283035278,
4.9275000000000002,0.294761061668396,
4.9299999999999997,0.27685087919235229,
4.9325000000000001,0.25050243735313416,
4.9349999999999996,0.22064408659934998,
4.9375,0.1653268039226532,
4.9400000000000004,0.14429132640361786,
4.9424999999999999,0.1284966915845871,
4.9450000000000003,0.11734187602996826,
4.9474999999999998,0.1038791760802269,
4.9500000000000002,0.09871046245098114,
4.9524999999999997,0.09301285445690155,
4.9550000000000001,0.086209379136562347,
4.9574999999999996,0.069068476557731628,
4.96,0.059620540589094162,
4.9625000000000004,0.050533216446638107,
4.9649999999999999,0.04257579892873764,
4.9675000000000002,0.032118164002895355,
4.9699999999999998,0.030050676316022873,
4.9725000000000001,0.02997855469584465,
4.9749999999999996,0.031396947801113129,
4.9775,0.036445461213588715,
4.9800000000000004,0.038729310035705566,
4.9824999999999999,0.04017174243927002,
4.9850000000000003,0.040364068001508713,
4.9874999999999998,0.036613743752241135,
4.9900000000000002,0.032911501824855804,
4.9924999999999997,0.028415918350219727,
4.9950000000000001,0.023487608879804611,
4.9974999999999996,0.01384735107421875,
5,0.0096883382648229599,92.783500671386719
5.0025000000000004,0.0061062974855303764,
5.0049999999999999,0.0031252703629434109,
5.0075000000000003,-0.0015385946026071906,
5.0099999999999998,-0.0035820405464619398,
5.0125000000000002,-0.0056495270691812038,
5.0149999999999997,-0.0078852977603673935,
5.0175000000000001,-0.013029973022639751,
5.0199999999999996,-0.015866756439208984,
5.0225,-0.018799703568220139,
5.0250000000000004,-0.021732648834586143,
5.0274999999999999,-0.027550458908081055,
5.0300000000000002,-0.030507445335388184,
5.0324999999999998,-0.033608675003051758,
5.0350000000000001,-0.037022434175014496,
5.0374999999999996,-0.045340459793806076,
5.04,-0.05043705552816391,
5.0425000000000004,-0.0561346635222435,
5.0449999999999999,-0.062337122857570648,
5.0475000000000003,-0.075511336326599121,
5.0499999999999998,-0.081978246569633484,
5.0525000000000002,-0.088084541261196136,
5.0549999999999997,-0.09368598461151123,
5.0575000000000001,-0.10337432473897934,
5.0599999999999996,-0.10765354335308075,
5.0625,-0.11181255429983139,
5.0650000000000004,-0.11606772989034653,
5.0674999999999999,-0.12558779120445251,
5.0700000000000003,-0.13106903433799744,
5.0724999999999998,-0.13700704276561737,
5.0750000000000002,-0.14328162372112274,
5.0774999999999997,-0.15607118606567383,
5.0800000000000001,-0.16210536658763885,
5.0824999999999996,-0.167658731341362,
5.085,-0.17249087989330292,
5.0875000000000004,-0.17977516353130341,
5.0899999999999999,-0.18217921257019043,
5.0925000000000002,-0.18383800983428955,
5.0949999999999998,-0.18489579856395721,
5.0975000000000001,-0.18559297919273376,
5.0999999999999996,-0.185472771525383,
5.1025,-0.18508812785148621,
5.1050000000000004,-0.1844390332698822,
5.1074999999999999,-0.18210709095001221,
5.1100000000000003,-0.18018385767936707,
5.1124999999999998,-0.17756342887878418,
5.1150000000000002,-0.17412564158439636,
5.1174999999999997,-0.16443729400634766,
5.1200000000000001,-0.15813867747783661,
5.1224999999999996,-0.15083035826683044,
5.125,-0.14260849356651306,
5.1275000000000004,-0.12378474324941635,
5.1299999999999999,-0.11337518692016602,
5.1325000000000003,-0.10248482227325439,
5.1349999999999998,-0.091257892549037933,
5.1375000000000002,-0.068299174308776855,
5.1399999999999997,-0.056879919022321701,
5.1425000000000001,-0.045677028596401215,
5.1449999999999996,-0.034810703247785568,
5.1475,-0.014424324035644531,
5.1500000000000004,-0.0050004324875771999,
5.1524999999999999,0.0038705270271748304,
5.1550000000000002,0.012260675430297852,
5.1574999999999998,0.027718743309378624,
5.1600000000000001,0.034858785569667816,
5.1624999999999996,0.041614174842834473,
5.165,0.047960877418518066,
5.1675000000000004,0.059139728546142578,
5.1699999999999999,0.063755512237548828,
5.1725000000000003,0.067529879510402679,
5.1749999999999998,0.070366665720939636,
5.1775000000000002,0.073035165667533875,
5.1799999999999997,0.072987079620361328,
5.1825000000000001,0.072193741798400879,
5.1849999999999996,0.070991717278957367,
5.1875,0.068587660789489746,
5.1900000000000004,0.068058773875236511,
5.1924999999999999,0.068275138735771179,
5.1950000000000003,0.069405041635036469,
5.1974999999999998,0.074116989970207214,
5.2000000000000002,0.077338419854640961,
5.2024999999999997,0.080680057406425476,
5.2050000000000001,0.083853408694267273,
5.2074999999999996,0.088469192385673523,
5.21,0.089502930641174316,
5.2125000000000004,0.089599095284938812,
5.2149999999999999,0.088853836059570312,
5.2175000000000002,0.085416041314601898,
5.2199999999999998,0.083180271089076996,
5.2225000000000001,0.080896422266960144,
5.2249999999999996,0.078756809234619141,
5.2275,0.075319014489650726,
5.2300000000000004,0.074092946946620941,
5.2324999999999999,0.073131322860717773,
5.2350000000000003,0.072362028062343597,
5.2374999999999998,0.07168889045715332,
5.2400000000000002,0.070294544100761414,
5.2424999999999997,0.069501206278800964,
5.2450000000000001,0.068707868456840515,
5.2474999999999996,0.067529879510402679,
5.25,0.067361593246459961,
5.2525000000000004,0.067553922533988953,
5.2549999999999999,0.068178974092006683,
5.2575000000000003,0.070366665720939636,
5.2599999999999998,0.071640811860561371,
5.2625000000000002,0.07277071475982666,
5.2649999999999997,0.073540017008781433,
5.2675000000000001,0.073323652148246765,
5.2699999999999996,0.072193741798400879,
5.2725,0.070414744317531586,
5.2750000000000004,0.068082809448242188,
5.2774999999999999,0.062553487718105316,
5.2800000000000002,0.059740744531154633,
5.2824999999999998,0.057144366204738617,
5.2850000000000001,0.054908595979213715,
5.2874999999999996,0.051831405609846115,
5.29,0.050965946167707443,
5.2925000000000004,0.050509177148342133,
5.2949999999999999,0.050364933907985687,
5.2975000000000003,0.050509177148342133,
5.2999999999999998,0.05060533806681633,
5.3025000000000002,0.050653420388698578,
5.3049999999999997,0.050581298768520355,
5.3075000000000001,0.050076447427272797,
5.3099999999999996,0.049667757004499435,
5.3125,0.049162905663251877,
5.3150000000000004,0.048585932701826096,
5.3174999999999999,0.047287743538618088,
5.3200000000000003,0.046566527336835861,
5.3224999999999998,0.04582127183675766,
5.3250000000000002,0.045051973313093185,
5.3274999999999997,0.043513379991054535,
5.3300000000000001,0.042792163789272308,
5.3324999999999996,0.042070947587490082,
5.335,0.04137377068400383,
5.3375000000000004,0.039955377578735352,
5.3399999999999999,0.039234161376953125,
5.3425000000000002,0.038561027497053146,
5.3449999999999998,0.03796001523733139,
5.3475000000000001,0.037455163896083832,
5.3499999999999996,0.037719607353210449,
5.3525,0.038416784256696701,
5.3550000000000004,0.039570730179548264,
5.3574999999999999,0.042936407029628754,
5.3600000000000003,0.044883690774440765,
5.3624999999999998,0.046758852899074554,
5.3650000000000002,0.048417650163173676,
5.3674999999999997,0.050509177148342133,
5.3700000000000001,0.050797663629055023,
5.3724999999999996,0.050629377365112305,
5.375,0.050004325807094574,
5.3775000000000004,0.047744512557983398,
5.3799999999999999,0.046278040856122971,
5.3825000000000003,0.044595204293727875,
5.3849999999999998,0.042768120765686035,
5.3875000000000002,0.038633149117231369,
5.3899999999999997,0.036397378891706467,
5.3925000000000001,0.034113526344299316,
5.3949999999999996,0.031877756118774414,
5.3975,0.029834311455488205,
5.4000000000000004,0.026901364326477051,
5.4024999999999999,0.026276310905814171,
5.4050000000000002,0.026396512985229492,
5.4074999999999998,0.028824608772993088,
5.4100000000000001,0.03094017505645752,
5.4124999999999996,0.033416353166103363,
5.415,0.035940609872341156,
5.4175000000000004,0.039859216660261154,
5.4199999999999999,0.040580432862043381,
5.4225000000000003,0.04012366384267807,
5.4249999999999998,0.038320623338222504,
5.4275000000000002,0.030363202095031738,
5.4299999999999997,0.024377107620239258,
5.4325000000000001,0.017285149544477463,
5.4349999999999996,0.009351770393550396,
5.4375,-0.0075246891938149929,
5.4400000000000004,-0.015698473900556564,
5.4424999999999999,-0.023127000778913498,
5.4450000000000003,-0.029377540573477745,
5.4474999999999998,-0.036974351853132248,
5.4500000000000002,-0.037815771996974945,
5.4524999999999997,-0.036565661430358887,
5.4550000000000001,-0.033296149224042892,
5.4574999999999996,-0.021612446755170822,
5.46,-0.013943513855338097,
5.4625000000000004,-0.0056735677644610405,
5.4649999999999999,0.0027646622620522976,
5.4675000000000002,0.018823742866516113,
5.4699999999999998,0.026011865586042404,
5.4725000000000001,0.032574933022260666,
5.4749999999999996,0.038536988198757172,
5.4775,0.048970580101013184,
5.4800000000000004,0.053538285195827484,
5.4824999999999999,0.057625174522399902,
5.4850000000000003,0.061062972992658615,
5.4874999999999998,0.064789257943630219,
5.4900000000000002,0.064548850059509277,
5.4924999999999997,0.062625609338283539,
5.4950000000000001,0.059067606925964355,
5.4974999999999996,0.048561893403530121,
5.5,0.043152771890163422,
5.5025000000000004,0.039065878838300705,
5.5049999999999999,0.037599407136440277,
5.5075000000000003,0.047407947480678558,
5.5099999999999998,0.060389839112758636,
5.5125000000000002,0.0791655033826828,
5.5149999999999997,0.10315795987844467,
5.5175000000000001,0.16128799319267273,
5.5199999999999996,0.19100210070610046,
5.5225,0.21732649207115173,
5.5250000000000004,0.23701569437980652,
5.5274999999999999,0.24336239695549011,
5.5300000000000002,0.22403380274772644,
5.5324999999999998,0.18657863140106201,
5.5350000000000001,0.12957851588726044,
5.5374999999999996,-0.04336913675069809,
5.54,-0.15623947978019714,
5.5425000000000004,-0.28228402137756348,
5.5449999999999999,-0.41633409261703491,
5.5475000000000003,-0.6815493106842041,
5.5499999999999998,-0.7972564697265625,
5.5525000000000002,-0.8911588191986084,
5.5549999999999997,-0.95618844032287598,
5.5575000000000001,-0.97982031106948853,
5.5599999999999996,-0.9345279335975647,
5.5625,-0.85324686765670776,
5.5650000000000004,-0.74107372760772705,
5.5674999999999999,-0.45566439628601074,
5.5700000000000003,-0.3015645444393158,
5.5724999999999998,-0.15296995639801025,
5.5750000000000002,-0.018535256385803223,
5.5774999999999997,0.18350145220756531,
5.5800000000000001,0.24521350860595703,
5.5824999999999996,0.28105795383453369,
5.585,0.29411196708679199,
5.5875000000000004,0.27060031890869141,
5.5899999999999999,0.2446846216917038,
5.5925000000000002,0.21586000919342041,
5.5949999999999998,0.18790087103843689,
5.5975000000000001,0.14347395300865173,
5.5999999999999996,0.12847265601158142,
5.6025,0.11772652715444565,
5.6050000000000004,0.11020183563232422,
5.6074999999999999,0.099936529994010925,
5.6100000000000003,0.095320746302604675,
5.6124999999999998,0.090344354510307312,
5.6150000000000002,0.084887146949768066,
5.6174999999999997,0.073419809341430664,
5.6200000000000001,0.068082809448242188,
5.6224999999999996,0.063467025756835938,
5.625,0.059764783829450607,
5.6275000000000004,0.056976079940795898,
5.6299999999999999,0.053634446114301682,
5.6325000000000003,0.052552621811628342,
5.6349999999999998,0.051470797508955002,
5.6375000000000002,0.048129163682460785,
5.6399999999999997,0.045580863952636719,
5.6425000000000001,0.042407512664794922,
5.6449999999999996,0.038657188415527344,
5.6475,0.034522216767072678,
5.6500000000000004,0.026108026504516602,
5.6524999999999999,0.022285580635070801,
5.6550000000000002,0.018992027267813683,
5.6574999999999998,0.014352202415466309,
5.6600000000000001,0.012981891632080078,
5.6624999999999996,0.012092391960322857,
5.665,0.011467337608337402,
5.6675000000000004,0.010962486267089844,
5.6699999999999999,0.0093758106231689453,
5.6725000000000003,0.0080295410007238388,
5.6749999999999998,0.0061543784104287624,
5.6775000000000002,0.0037503242492675781,
5.6799999999999997,-0.002476175781339407,
5.6825000000000001,-0.0060822567902505398,
5.6849999999999996,-0.0099047031253576279,
5.6875,-0.01384735107421875,
5.6900000000000004,-0.021756689995527267,
5.6924999999999999,-0.02569933794438839,
5.6950000000000003,-0.02969006821513176,
5.6974999999999998,-0.037984054535627365,
5.7000000000000002,-0.042383473366498947,
5.7024999999999997,-0.047023296356201172,
5.7050000000000001,-0.051879487931728363,
5.7074999999999996,-0.056952040642499924,
5.71,-0.067602001130580902,
5.7125000000000004,-0.073131322860717773,
5.7149999999999999,-0.078852973878383636,
5.7175000000000002,-0.091017484664916992,
5.7199999999999998,-0.097580552101135254,
5.7225000000000001,-0.10455231368541718,
5.7249999999999996,-0.11188467592000961,
5.7275,-0.11952956765890121,
5.7300000000000004,-0.13496360182762146,
5.7324999999999999,-0.14227192103862762,
5.7350000000000003,-0.14900326728820801,
5.7374999999999998,-0.15982151031494141,
5.7400000000000002,-0.16371607780456543,
5.7424999999999997,-0.16667306423187256,
5.7450000000000001,-0.16878864169120789,
5.7474999999999996,-0.17150521278381348,
5.75,-0.17263512313365936,
5.7525000000000004,-0.17386119067668915,
5.7549999999999999,-0.1753036230802536,
5.7575000000000003,-0.1769864559173584,
5.7599999999999998,-0.18049637973308563,
5.7625000000000002,-0.18184265494346619,
5.7649999999999997,-0.18251578509807587,
5.7675000000000001,-0.18217921257019043,
5.7699999999999996,-0.17761151492595673,
5.7725,-0.17313997447490692,
5.7750000000000004,-0.16720196604728699,
5.7774999999999999,-0.15994171798229218,
5.7800000000000002,-0.1421997994184494,
5.7824999999999998,-0.13215085864067078,
5.7850000000000001,-0.1215970516204834,
5.7874999999999996,-0.1106826514005661,
5.79,-0.088228784501552582,
5.7925000000000004,-0.076881647109985352,
5.7949999999999999,-0.065582595765590668,
5.7975000000000003,-0.054451823234558105,
5.7999999999999998,-0.033103823661804199,
5.8025000000000002,-0.023175081238150597,
5.8049999999999997,-0.01384735107421875,
5.8075000000000001,-0.0051927566528320312,
5.8099999999999996,0.010072986595332623,
5.8125,0.016780298203229904,
5.8150000000000004,0.023030837997794151,
5.8174999999999999,0.028872689232230186,
5.8200000000000003,0.039739012718200684,
5.8224999999999998,0.044859647750854492,
5.8250000000000002,0.049739878624677658,
5.8274999999999997,0.054379701614379883,
5.8300000000000001,0.062625609338283539,
5.8324999999999996,0.066087447106838226,
5.835,0.069044433534145355,
5.8375000000000004,0.071448490023612976,
5.8399999999999999,0.074717998504638672,
5.8425000000000002,0.075775787234306335,
5.8449999999999998,0.076593160629272461,
5.8475000000000001,0.077314376831054688,
5.8499999999999996,0.078901052474975586,
5.8525,0.079886719584465027,
5.8550000000000004,0.080968543887138367,
5.8574999999999999,0.082074403762817383,
5.8600000000000003,0.083709165453910828,
5.8624999999999998,0.083949565887451172,
5.8650000000000002,0.083661079406738281,
5.8674999999999997,0.082843706011772156,
5.8700000000000001,0.080006919801235199,
5.8724999999999996,0.078348122537136078,
5.875,0.076857611536979675,
5.8775000000000004,0.075727701187133789,
5.8799999999999999,0.075246892869472504,
5.8825000000000003,0.075920030474662781,
5.8849999999999998,0.07704993337392807,
5.8875000000000002,0.078420244157314301,
5.8899999999999997,0.080656014382839203,
5.8925000000000001,0.080992579460144043,
5.8949999999999996,0.080559849739074707,
5.8975,0.079285703599452972,
5.9000000000000004,0.074790120124816895,
5.9024999999999999,0.072049498558044434,
5.9050000000000002,0.069429084658622742,
5.9074999999999998,0.067241393029689789,
5.9100000000000001,0.065101787447929382,
5.9124999999999996,0.065294109284877777,
5.915,0.066207647323608398,
5.9175000000000004,0.067577958106994629,
5.9199999999999999,0.070462822914123535,
5.9225000000000003,0.071304246783256531,
5.9249999999999998,0.071472525596618652,
5.9275000000000002,0.070799395442008972,
5.9299999999999997,0.067217350006103516,
5.9325000000000001,0.064548850059509277,
5.9349999999999996,0.061615906655788422,
5.9375,0.058610837906599045,
5.9400000000000004,0.053201716393232346,
5.9424999999999999,0.051086150109767914,
5.9450000000000003,0.049475431442260742,
5.9474999999999998,0.048393607139587402,
5.9500000000000002,0.047840677201747894,
5.9524999999999997,0.04827340692281723,
5.9550000000000001,0.049114823341369629,
5.9574999999999996,0.050268769264221191,
5.96,0.053033433854579926,
5.9625000000000004,0.054451823234558105,
5.9649999999999999,0.055701933801174164,
5.9675000000000002,0.056735675781965256,
5.9699999999999998,0.057889621704816818,
5.9725000000000001,0.057985782623291016,
5.9749999999999996,0.057769417762756348,
5.9775,0.057240527123212814,
5.9800000000000004,0.055533647537231445,
5.9824999999999999,0.054451823234558105,
5.9850000000000003,0.053273838013410568,
5.9874999999999998,0.052023731172084808,
5.9900000000000002,0.049547553062438965,
5.9924999999999997,0.048345528542995453,
5.9950000000000001,0.04719158262014389,
5.9974999999999996,0.046109758317470551,
6,0.044210553169250488,92.307693481445312
6.0025000000000004,0.043441258370876312,
6.0049999999999999,0.042840242385864258,
6.0075000000000003,0.04245559498667717,
6.0099999999999998,0.042431555688381195,
6.0125000000000002,0.042792163789272308,
6.0149999999999997,0.04336913675069809,
6.0175000000000001,0.044042270630598068,
6.0199999999999996,0.045364499092102051,
6.0225,0.045773189514875412,
6.0250000000000004,0.045893393456935883,
6.0274999999999999,0.045725107192993164,
6.0300000000000002,0.044619243592023849,
6.0324999999999998,0.043873988091945648,
6.0350000000000001,0.043200850486755371,
6.0374999999999996,0.042671959847211838,
6.04,0.042383473366498947,
6.0425000000000004,0.042599838227033615,
6.0449999999999999,0.04291236400604248,
6.0475000000000003,0.043176811188459396,
6.0499999999999998,0.042768120765686035,
6.0525000000000002,0.041758418083190918,
6.0549999999999997,0.040075581520795822,
6.0575000000000001,0.037719607353210449,
6.0599999999999996,0.031445026397705078,
6.0625,0.027935108169913292,
6.0650000000000004,0.024569433182477951,
6.0674999999999999,0.021612446755170822,
6.0700000000000003,0.017790000885725021,
6.0724999999999998,0.017164945602416992,
6.0750000000000002,0.017405351623892784,
6.0774999999999997,0.018391013145446777,
6.0800000000000001,0.021732648834586143,
6.0824999999999996,0.02353568933904171,
6.085,0.025050243362784386,
6.0875000000000004,0.02598782442510128,
6.0899999999999999,0.025146406143903732,
6.0925000000000002,0.023006796836853027,
6.0949999999999998,0.019593041390180588,
6.0975000000000001,0.014833013527095318,
6.0999999999999996,0.0018270810833200812,
6.1025,-0.0059620542451739311,
6.1050000000000004,-0.014087757095694542,
6.1074999999999999,-0.022069215774536133,
6.1100000000000003,-0.035435758531093597,
6.1124999999999998,-0.039859216660261154,
6.1150000000000002,-0.042263269424438477,
6.1174999999999997,-0.04245559498667717,
6.1200000000000001,-0.036421418190002441,
6.1224999999999996,-0.030675729736685753,
6.125,-0.023655891418457031,
6.1275000000000004,-0.015770595520734787,
6.1299999999999999,0.00074525678064674139,
6.1325000000000003,0.0086786355823278427,
6.1349999999999998,0.016155242919921875,
6.1375000000000002,0.023030837997794151,
6.1399999999999997,0.035147272050380707,
6.1425000000000001,0.040412150323390961,
6.1449999999999996,0.045124094933271408,
6.1475,0.049235027283430099,
6.1500000000000004,0.054836474359035492,
6.1524999999999999,0.055846177041530609,
6.1550000000000002,0.055365364998579025,
6.1574999999999998,0.053345959633588791,
6.1600000000000001,0.045220255851745605,
6.1624999999999996,0.040147703140974045,
6.165,0.035459797829389572,
6.1675000000000004,0.032262407243251801,
6.1699999999999999,0.034954946488142014,
6.1725000000000003,0.042888324707746506,
6.1749999999999998,0.056062541902065277,
6.1775000000000002,0.074525676667690277,
6.1799999999999997,0.1247704029083252,
6.1825000000000001,0.1537632942199707,
6.1849999999999996,0.18256387114524841,
6.1875,0.20857572555541992,
6.1900000000000004,0.24064581096172333,
6.1924999999999999,0.24074196815490723,
6.1950000000000003,0.22641381621360779,
6.1974999999999998,0.19530534744262695,
6.2000000000000002,0.076424881815910339,
6.2024999999999997,-0.012188553810119629,
6.2050000000000001,-0.11885643005371094,
6.2074999999999996,-0.240669846534729,
6.21,-0.51071727275848389,
6.2125000000000004,-0.64587318897247314,
6.2149999999999999,-0.77076375484466553,
6.2175000000000002,-0.87709510326385498,
6.2199999999999998,-1.0043176412582397,
6.2225000000000001,-1.014174222946167,
6.2249999999999996,-0.98479670286178589,
6.2275,-0.91719472408294678,
6.2300000000000004,-0.68614107370376587,
6.2324999999999999,-0.53824365139007568,
6.2350000000000003,-0.38171571493148804,
6.2374999999999998,-0.22679845988750458,
6.2400000000000002,0.042119026184082031,
6.2424999999999997,0.14301717281341553,
6.2450000000000001,0.21701395511627197,
6.2474999999999996,0.26406130194664001,
6.25,0.28827011585235596,
6.2525000000000004,0.27459105849266052,
6.2549999999999999,0.25088709592819214,
6.2575000000000003,0.22223076224327087,
6.2599999999999998,0.16585569083690643,
6.2625000000000002,0.1430412232875824,
6.2649999999999997,0.12517909705638885,
6.2675000000000001,0.11200487613677979,
6.2699999999999996,0.096306405961513519,
6.2725,0.091546379029750824,
6.2750000000000004,0.087483525276184082,
6.2774999999999999,0.083468757569789886,
6.2800000000000002,0.074333354830741882,
6.2824999999999998,0.06923675537109375,
6.2850000000000001,0.064116120338439941,
6.2874999999999996,0.059211850166320801,
6.29,0.050965946167707443,
6.2925000000000004,0.047936838120222092,
6.2949999999999999,0.045604906976222992,
6.2975000000000003,0.043922066688537598,
6.2999999999999998,0.041782461106777191,
6.3025000000000002,0.040989123284816742,
6.3049999999999997,0.040075581520795822,
6.3075000000000001,0.03892163559794426,
6.3099999999999996,0.035459797829389572,
6.3125,0.03305574506521225,
6.3150000000000004,0.030291080474853516,
6.3174999999999999,0.027213891968131065,
6.3200000000000003,0.02074698731303215,
6.3224999999999998,0.017717879265546799,
6.3250000000000002,0.015025338158011436,
6.3274999999999997,0.012741486541926861,
6.3300000000000001,0.0095200538635253906,
6.3324999999999996,0.0084141893312335014,
6.335,0.0073564052581787109,
6.3375000000000004,0.0061062974855303764,
6.3399999999999999,0.0020194053649902344,
6.3425000000000002,-0.0012020270805805922,
6.3449999999999998,-0.0053610405884683132,
6.3475000000000001,-0.010361473076045513,
6.3499999999999996,-0.022117298096418381,
6.3525,-0.028295716270804405,
6.3550000000000004,-0.034257769584655762,
6.3574999999999999,-0.039690934121608734,
6.3600000000000003,-0.04827340692281723,
6.3624999999999998,-0.051350593566894531,
6.3650000000000002,-0.053802728652954102,
6.3674999999999997,-0.055846177041530609,
6.3700000000000001,-0.060029231011867523,
6.3724999999999996,-0.062841974198818207,
6.375,-0.066472098231315613,
6.3775000000000004,-0.071135960519313812,
6.3799999999999999,-0.083757244050502777,
6.3825000000000003,-0.091546379029750824,
6.3849999999999998,-0.10003268718719482,
6.3875000000000002,-0.10897576808929443,
6.3899999999999997,-0.12683789432048798,
6.3925000000000001,-0.1352040022611618,
6.3949999999999996,-0.14287292957305908,
6.3975,-0.14972448348999023,
6.4000000000000004,-0.16061484813690186,
6.4024999999999999,-0.16472578048706055,
6.4050000000000002,-0.16806742548942566,
6.4074999999999998,-0.17075996100902557,
6.4100000000000001,-0.17470261454582214,
6.4124999999999996,-0.1762412041425705,
6.415,-0.1776355504989624,
6.4175000000000004,-0.17900586128234863,
6.4199999999999999,-0.18177053332328796,
6.4225000000000003,-0.18318891525268555,
6.4249999999999998,-0.1845351904630661,
6.4275000000000002,-0.18571317195892334,
6.4299999999999997,-0.18691520392894745,
6.4325000000000001,-0.18657863140106201,
6.4349999999999996,-0.18540064990520477,
6.4375,-0.18321296572685242,
6.4400000000000004,-0.17523150146007538,
6.4424999999999999,-0.16926944255828857,
6.4450000000000003,-0.16198515892028809,
6.4474999999999998,-0.15342673659324646,
6.4500000000000002,-0.13308843970298767,
6.4524999999999997,-0.12174129486083984,
6.4550000000000001,-0.10998547077178955,
6.4574999999999996,-0.098109446465969086,
6.46,-0.075006484985351562,
6.4625000000000004,-0.064140163362026215,
6.4649999999999999,-0.053874850273132324,
6.4675000000000002,-0.044138431549072266,
6.4699999999999998,-0.025867622345685959,
6.4725000000000001,-0.017044743523001671,
6.4749999999999996,-0.0082699460908770561,
6.4775,0.00055293244076892734,
6.4800000000000004,0.018198689445853233,
6.4824999999999999,0.026781162247061729,
6.4850000000000003,0.034978985786437988,
6.4874999999999998,0.04257579892873764,
6.4900000000000002,0.055269204080104828,
6.4924999999999997,0.060125391930341721,
6.4950000000000001,0.063923798501491547,
6.4974999999999996,0.06673654168844223,
6.5,0.069837771356105804,
6.5025000000000004,0.070462822914123535,
6.5049999999999999,0.07072727382183075,
6.5075000000000003,0.070919595658779144,
6.5099999999999998,0.071111917495727539,
6.5125000000000002,0.071472525596618652,
6.5149999999999997,0.072049498558044434,
6.5175000000000001,0.073828503489494324,
6.5199999999999996,0.075006484985351562,
6.5225,0.076328717172145844,
6.5250000000000004,0.077819228172302246,
6.5274999999999999,0.081136822700500488,
6.5300000000000002,0.082915827631950378,
6.5324999999999998,0.084670782089233398,
6.5350000000000001,0.08632957935333252,
6.5374999999999996,0.087723933160305023,
6.54,0.089142322540283203,
6.5425000000000004,0.088925957679748535,
6.5449999999999999,0.087988376617431641,
6.5475000000000003,0.08411785215139389,
6.5499999999999998,0.081425309181213379,
6.5525000000000002,0.07846832275390625,
6.5549999999999997,0.075487300753593445,
6.5575000000000001,0.072626471519470215,
6.5599999999999996,0.067962609231472015,
6.5625,0.066279768943786621,
6.5650000000000004,0.065005622804164886,
6.5674999999999999,0.063322782516479492,
6.5700000000000003,0.062769852578639984,
6.5724999999999998,0.062265001237392426,
6.5750000000000002,0.06183227151632309,
6.5774999999999997,0.061255298554897308,
6.5800000000000001,0.061279337853193283,
6.5824999999999996,0.061639945954084396,
6.585,0.062361162155866623,
6.5875000000000004,0.064957544207572937,
6.5899999999999999,0.066592298448085785,
6.5925000000000002,0.068203017115592957,
6.5949999999999998,0.069525241851806641,
6.5975000000000001,0.070342622697353363,
6.5999999999999996,0.069501206278800964,
6.6025,0.067722201347351074,
6.6050000000000004,0.065125823020935059,
6.6074999999999999,0.058370433747768402,
6.6100000000000003,0.054836474359035492,
6.6124999999999998,0.051663123071193695,
6.6150000000000002,0.049114823341369629,
6.6174999999999997,0.046590566635131836,
6.6200000000000001,0.046662688255310059,
6.6224999999999996,0.047480069100856781,
6.625,0.048826336860656738,
6.6275000000000004,0.052119892090559006,
6.6299999999999999,0.053586363792419434,
6.6325000000000003,0.054644148796796799,
6.6349999999999998,0.05522112175822258,
6.6375000000000002,0.054764352738857269,
6.6399999999999997,0.053826771676540375,
6.6425000000000001,0.052552621811628342,
6.6449999999999996,0.051062107086181641,
6.6475,0.047912798821926117,
6.6500000000000004,0.046470366418361664,
6.6524999999999999,0.045196216553449631,
6.6550000000000002,0.044114392250776291,
6.6574999999999998,0.04274408146739006,
6.6600000000000001,0.042431555688381195,
6.6624999999999996,0.042383473366498947,
6.665,0.04257579892873764,
6.6675000000000004,0.043681662529706955,
6.6699999999999999,0.044499039649963379,
6.6725000000000003,0.045412581413984299,
6.6749999999999998,0.046350162476301193,
6.6775000000000002,0.047864716500043869,
6.6799999999999997,0.048297446221113205,
6.6825000000000001,0.048489771783351898,
6.6849999999999996,0.048393607139587402,
6.6875,0.047648351639509201,
6.6900000000000004,0.047119460999965668,
6.6924999999999999,0.046590566635131836,
6.6950000000000003,0.046133797615766525,
6.6974999999999998,0.045484703034162521,
6.7000000000000002,0.045292377471923828,
6.7024999999999997,0.045124094933271408,
6.7050000000000001,0.044931769371032715,
6.7074999999999996,0.044354796409606934,
6.71,0.043898027390241623,
6.7125000000000004,0.043297015130519867,
6.7149999999999999,0.042527716606855392,
6.7175000000000002,0.040364068001508713,
6.7199999999999998,0.03892163559794426,
6.7225000000000001,0.037214756011962891,
6.7249999999999996,0.035267472267150879,
6.7275,0.030675729736685753,
6.7300000000000004,0.02815147303044796,
6.7324999999999999,0.025603175163269043,
6.7350000000000003,0.023151040077209473,
6.7374999999999998,0.019088190048933029,
6.7400000000000002,0.017741918563842773,
6.7424999999999997,0.016996663063764572,
6.7450000000000001,0.016924541443586349,
6.7474999999999996,0.018655460327863693,
6.75,0.020266175270080566,
6.7525000000000004,0.022045176476240158,
6.7549999999999999,0.023752054199576378,
6.7575000000000003,0.025458931922912598,
6.7599999999999998,0.024785798043012619,
6.7625000000000002,0.022718310356140137,
6.7649999999999997,0.019112229347229004,
6.7675000000000001,0.0073804459534585476,
6.7699999999999996,-0.00036060810089111328,
6.7725,-0.008822878822684288,
6.7750000000000004,-0.017573636025190353,
6.7774999999999999,-0.033488474786281586,
6.7800000000000002,-0.039570730179548264,
6.7824999999999998,-0.043753784149885178,
6.7850000000000001,-0.045725107192993164,
6.7874999999999996,-0.042527716606855392,
6.79,-0.037551324814558029,
6.7925000000000004,-0.030723810195922852,
6.7949999999999999,-0.022550027817487717,
6.7975000000000003,-0.0044234595261514187,
6.7999999999999998,0.0044475002214312553,
6.8025000000000002,0.012549161911010742,
6.8049999999999997,0.019617080688476562,
6.8075000000000001,0.03031512163579464,
6.8099999999999996,0.03413756936788559,
6.8125,0.037238799035549164,
6.8150000000000004,0.039883255958557129,
6.8174999999999999,0.044475000351667404,
6.8200000000000003,0.046566527336835861,
6.8224999999999998,0.048345528542995453,
6.8250000000000002,0.049619674682617188,
6.8274999999999997,0.049763917922973633,
6.8300000000000001,0.048393607139587402,
6.8324999999999996,0.046254001557826996,
6.835,0.043849945068359375,
6.8375000000000004,0.041854582726955414,
6.8399999999999999,0.043224893510341644,
6.8425000000000002,0.048706136643886566,
6.8449999999999998,0.05863487720489502,
6.8475000000000001,0.093277297914028168,
6.8499999999999996,0.11726975440979004,
6.8525,0.14412304759025574,
6.8550000000000004,0.17176966369152069,
6.8574999999999999,0.21819195151329041,
6.8600000000000003,0.23045262694358826,
6.8624999999999998,0.23086130619049072,
6.8650000000000002,0.21617254614830017,
6.8674999999999997,0.13162195682525635,
6.8700000000000001,0.058947406709194183,
6.8724999999999996,-0.033801000565290451,
6.875,-0.14472405612468719,
6.8775000000000004,-0.40537160634994507,
6.8799999999999999,-0.54338836669921875,
6.8825000000000003,-0.6766931414604187,
6.8849999999999998,-0.79696798324584961,
6.8875000000000002,-0.96628546714782715,
6.8899999999999997,-1.0019856691360474,
6.8925000000000001,-0.99946141242980957,
6.8949999999999996,-0.95775109529495239,
6.8975,-0.76816737651824951,
6.9000000000000004,-0.63272297382354736,
6.9024999999999999,-0.48194071650505066,
6.9050000000000002,-0.32596570253372192,
6.9074999999999998,-0.037358999252319336,
6.9100000000000001,0.079333782196044922,
6.9124999999999996,0.1707359254360199,
6.915,0.23497223854064941,
6.9175000000000004,0.27281206846237183,
6.9199999999999999,0.28247636556625366,
6.9225000000000003,0.26418149471282959,
6.9249999999999998,0.23771286010742188,
6.9275000000000002,0.17924627661705017,
6.9299999999999997,0.15402774512767792,
6.9325000000000001,0.13388177752494812,
6.9349999999999996,0.11909683793783188,
6.9375,0.10284543037414551,
6.9400000000000004,0.098830662667751312,
6.9424999999999999,0.095777511596679688,
6.9450000000000003,0.092556081712245941,
6.9474999999999998,0.083372592926025391,
6.9500000000000002,0.077122054994106293,
6.9524999999999997,0.070078179240226746,
6.9550000000000001,0.062697730958461761,
6.9574999999999996,0.048850379884243011,
6.96,0.043128728866577148,
6.9625000000000004,0.038512945175170898,
6.9649999999999999,0.035051107406616211,
6.9675000000000002,0.031156539916992188,
6.9699999999999998,0.030291080474853516,
6.9725000000000001,0.029786229133605957,
6.9749999999999996,0.029377540573477745,
6.9775,0.027838945388793945,
6.9800000000000004,0.026468634605407715,
6.9824999999999999,0.02461751364171505,
6.9850000000000003,0.022333662956953049,
6.9874999999999998,0.016972621902823448,
6.9900000000000002,0.014183918945491314,
6.9924999999999997,0.011515418998897076,
6.9950000000000001,0.0090632839128375053,
6.9974999999999996,0.004784067627042532,
7,0.0028848648071289062,91.254753112792969
7.0025000000000004,0.0010097026824951172,
7.0049999999999999,-0.00096162164118140936,
7.0075000000000003,-0.0056495270691812038,
7.0099999999999998,-0.0085103511810302734,
7.0125000000000002,-0.011731783859431744,
7.0149999999999997,-0.015313824638724327,
7.0175000000000001,-0.023319324478507042,
7.0199999999999996,-0.027550458908081055,
7.0225,-0.031853716820478439,
7.0250000000000004,-0.036084853112697601,
7.0274999999999999,-0.044306717813014984,
7.0300000000000002,-0.048249363899230957,
7.0324999999999998,-0.052192013710737228,
7.0350000000000001,-0.056182742118835449,
7.0374999999999996,-0.064909458160400391,
7.04,-0.069861814379692078,
7.0425000000000004,-0.075391136109828949,
7.0449999999999999,-0.081521473824977875,
7.0475000000000003,-0.095585189759731293,
7.0499999999999998,-0.10335028171539307,
7.0525000000000002,-0.111427903175354,
7.0549999999999997,-0.11960168927907944,
7.0575000000000001,-0.1353963315486908,
7.0599999999999996,-0.14256040751934052,
7.0625,-0.14900326728820801,
7.0650000000000004,-0.15458068251609802,
7.0674999999999999,-0.16306698322296143,
7.0700000000000003,-0.16609609127044678,
7.0724999999999998,-0.16857227683067322,
7.0750000000000002,-0.17071187496185303,
7.0774999999999997,-0.17489492893218994,
7.0800000000000001,-0.17729899287223816,
7.0824999999999996,-0.18003961443901062,
7.085,-0.18309275805950165,
7.0875000000000004,-0.18631419539451599,
7.0899999999999999,-0.19258877635002136,
7.0925000000000002,-0.19516110420227051,
7.0949999999999998,-0.19708435237407684,
7.0975000000000001,-0.19847869873046875,
7.0999999999999996,-0.19780556857585907,
7.1025,-0.19617080688476562,
7.1050000000000004,-0.19355039298534393,
7.1074999999999999,-0.18542468547821045,
7.1100000000000003,-0.1798713207244873,
7.1124999999999998,-0.17330825328826904,
7.1150000000000002,-0.16575953364372253,
7.1174999999999997,-0.14794549345970154,
7.1200000000000001,-0.13792058825492859,
7.1224999999999996,-0.12736678123474121,
7.125,-0.11650045961141586,
7.1275000000000004,-0.094575487077236176,
7.1299999999999999,-0.083853408694267273,
7.1325000000000003,-0.07346789538860321,
7.1349999999999998,-0.063418947160243988,
7.1375000000000002,-0.044475000351667404,
7.1399999999999997,-0.035435758531093597,
7.1425000000000001,-0.026636919006705284,
7.1449999999999996,-0.018006365746259689,
7.1475,-0.0011299054604023695,
7.1500000000000004,0.007043878547847271,
7.1524999999999999,0.014953216537833214,
7.1550000000000002,0.022525986656546593,
7.1574999999999998,0.036108892410993576,
7.1600000000000001,0.041950743645429611,
7.1624999999999996,0.047023296356201172,
7.165,0.051350593566894531,
7.1675000000000004,0.057793460786342621,
7.1699999999999999,0.060053270310163498,
7.1725000000000003,0.061808228492736816,
7.1749999999999998,0.063178539276123047,
7.1775000000000002,0.065173909068107605,
7.1799999999999997,0.06599128246307373,
7.1825000000000001,0.066808663308620453,
7.1849999999999996,0.067626044154167175,
7.1875,0.069308876991271973,
7.1900000000000004,0.070126257836818695,
7.1924999999999999,0.070799395442008972,
7.1950000000000003,0.071280203759670258,
7.1974999999999998,0.071304246783256531,
7.2000000000000002,0.070679187774658203,
7.2024999999999997,0.06964544951915741,
7.2050000000000001,0.068178974092006683,
7.2074999999999996,0.06428440660238266,
7.21,0.062072675675153732,
7.2125000000000004,0.059933066368103027,
7.2149999999999999,0.057961743324995041,
7.2175000000000002,0.055293243378400803,
7.2199999999999998,0.054860513657331467,
7.2225000000000001,0.055149000138044357,
7.2249999999999996,0.056158702820539474,
7.2275,0.060173474252223969,
7.2300000000000004,0.062841974198818207,
7.2324999999999999,0.065606638789176941,
7.2350000000000003,0.06815493106842041,
7.2374999999999998,0.071424447000026703,
7.2400000000000002,0.071664854884147644,
7.2424999999999997,0.070775352418422699,
7.2450000000000001,0.068828068673610687,
7.2474999999999996,0.062433283776044846,
7.25,0.05858679860830307,
7.2525000000000004,0.054764352738857269,
7.2549999999999999,0.051350593566894531,
7.2575000000000003,0.046518445014953613,
7.2599999999999998,0.045340459793806076,
7.2625000000000002,0.04490773007273674,
7.2649999999999997,0.045051973313093185,
7.2675000000000001,0.046181879937648773,
7.2699999999999996,0.046734809875488281,
7.2725,0.047047339379787445,
7.2750000000000004,0.046999257057905197,
7.2774999999999999,0.045965515077114105,
7.2800000000000002,0.045124094933271408,
7.2824999999999998,0.044258635491132736,
7.2850000000000001,0.043513379991054535,
7.2874999999999996,0.042768120765686035,
7.29,0.042840242385864258,
7.2925000000000004,0.043104689568281174,
7.2949999999999999,0.043465297669172287,
7.2975000000000003,0.043946109712123871,
7.2999999999999998,0.043729744851589203,
7.3025000000000002,0.043104689568281174,
7.3049999999999997,0.041998825967311859,
7.3075000000000001,0.038585066795349121,
7.3099999999999996,0.036469500511884689,
7.3125,0.034281812608242035,
7.3150000000000004,0.032190285623073578,
7.3174999999999999,0.02889673039317131,
7.3200000000000003,0.027911067008972168,
7.3224999999999998,0.027478337287902832,
7.3250000000000002,0.027574500069022179,
7.3274999999999997,0.029137134552001953,
7.3300000000000001,0.030363202095031738,
7.3324999999999996,0.031661391258239746,
7.335,0.032887458801269531,
7.3375000000000004,0.034498177468776703,
7.3399999999999999,0.034738581627607346,
7.3425000000000002,0.0345943383872509,
7.3449999999999998,0.034185647964477539,
7.3475000000000001,0.033031702041625977,
7.3499999999999996,0.032598972320556641,
7.3525,0.032430689781904221,
7.3550000000000004,0.032550893723964691,
7.3574999999999999,0.032983623445034027,
7.3600000000000003,0.034233730286359787,
7.3624999999999998,0.034738581627607346,
7.3650000000000002,0.034906864166259766,
7.3674999999999997,0.033608675003051758,
7.3700000000000001,0.031997960060834885,
7.3724999999999996,0.029714107513427734,
7.375,0.026877325028181076,
7.3775000000000004,0.020170014351606369,
7.3799999999999999,0.016708176583051682,
7.3825000000000003,0.013486742973327637,
7.3849999999999998,0.010698040947318077,
7.3875000000000002,0.007091959472745657,
7.3899999999999997,0.0064188241958618164,
7.3925000000000001,0.0065630674362182617,
7.3949999999999996,0.0074525675736367702,
7.3975,0.010962486267089844,
7.4000000000000004,0.013246337883174419,
7.4024999999999999,0.015578269958496094,
7.4050000000000002,0.017693838104605675,
7.4074999999999998,0.019304554909467697,
7.4100000000000001,0.019809406250715256,
7.4124999999999996,0.018150608986616135,
7.415,0.01490513514727354,
7.4175000000000004,0.0034618377685546875,
7.4199999999999999,-0.0044715404510498047,
7.4225000000000003,-0.013414621353149414,
7.4249999999999998,-0.022862553596496582,
7.4275000000000002,-0.03214220330119133,
7.4299999999999997,-0.047456026077270508,
7.4325000000000001,-0.052288174629211426,
7.4349999999999996,-0.054668188095092773,
7.4375,-0.051615040749311447,
7.4400000000000004,-0.046566527336835861,
7.4424999999999999,-0.039739012718200684,
7.4450000000000003,-0.031709473580121994,
7.4474999999999998,-0.023102959617972374,
7.4500000000000002,-0.0062265000306069851,
7.4524999999999997,0.0013222297420725226,
7.4550000000000001,0.0080535812303423882,
7.4574999999999996,0.019400715827941895,
7.46,0.024377107620239258,
7.4625000000000004,0.029161175712943077,
7.4649999999999999,0.033849082887172699,
7.4675000000000002,0.038464866578578949,
7.4699999999999998,0.046566527336835861,
7.4725000000000001,0.049331188201904297,
7.4749999999999996,0.050653420388698578,
7.4775,0.050196647644042969,
7.4800000000000004,0.043585501611232758,
7.4824999999999999,0.037984054535627365,
7.4850000000000003,0.031805634498596191,
7.4874999999999998,0.026132067665457726,
7.4900000000000002,0.021420121192932129,
7.4924999999999997,0.024881958961486816,
7.4950000000000001,0.03351251408457756,
7.4974999999999996,0.067361593246459961,
7.5,0.091618500649929047,
7.5025000000000004,0.11900067329406738,
7.5049999999999999,0.14744064211845398,
7.5075000000000003,0.17424583435058594,
7.5099999999999998,0.21078746020793915,
7.5125000000000002,0.21398484706878662,
7.5149999999999997,0.20297428965568542,
7.5175000000000001,0.17515937983989716,
7.5199999999999996,0.062433283776044846,
7.5225,-0.02307891845703125,
7.5250000000000004,-0.12623688578605652,
7.5274999999999999,-0.24377107620239258,
7.5300000000000002,-0.50131738185882568,
7.5324999999999998,-0.62786680459976196,
7.5350000000000001,-0.74266040325164795,
7.5374999999999996,-0.8378368616104126,
7.54,-0.94258153438568115,
7.5425000000000004,-0.94299018383026123,
7.5449999999999999,-0.90661686658859253,
7.5475000000000003,-0.83528858423233032,
7.5499999999999998,-0.60822570323944092,
7.5525000000000002,-0.46787700057029724,
7.5549999999999997,-0.32192689180374146,
7.5575000000000001,-0.17965495586395264,
7.5599999999999996,0.06216883659362793,
7.5625,0.15066206455230713,
7.5650000000000004,0.21417717635631561,
7.5674999999999999,0.25312286615371704,
7.5700000000000003,0.26872515678405762,
7.5724999999999998,0.25413256883621216,
7.5750000000000002,0.23112575709819794,
7.5774999999999997,0.20429651439189911,
7.5800000000000001,0.1530180424451828,
7.5824999999999996,0.13275186717510223,
7.585,0.11710147559642792,
7.5875000000000004,0.10577838122844696,
7.5899999999999999,0.092435881495475769,
7.5925000000000002,0.088276863098144531,
7.5949999999999998,0.084478460252285004,
7.5975000000000001,0.080415606498718262,
7.5999999999999996,0.070390701293945312,
7.6025,0.064476728439331055,
7.6050000000000004,0.058250229805707932,
7.6074999999999999,0.052023731172084808,
7.6100000000000003,0.040508311241865158,
7.6124999999999998,0.03555595874786377,
7.6150000000000002,0.031156539916992188,
7.6174999999999997,0.027334094047546387,
7.6200000000000001,0.021059513092041016,
7.6224999999999996,0.018415054306387901,
7.625,0.015986960381269455,
7.6275000000000004,0.013751189224421978,
7.6299999999999999,0.0096402568742632866,
7.6325000000000003,0.0077170133590698242,
7.6349999999999998,0.0058178110048174858,
7.6375000000000002,0.0039186081849038601,
7.6399999999999997,7.2121620178222656e-05,
7.6425000000000001,-0.0019232432823628187,
7.6449999999999996,-0.0039426488801836967,
7.6475,-0.0059860944747924805,
7.6500000000000004,-0.010169148445129395,
7.6524999999999999,-0.012284716591238976,
7.6550000000000002,-0.014496445655822754,
7.6574999999999998,-0.016852419823408127,
7.6600000000000001,-0.022141337394714355,
7.6624999999999996,-0.025194486603140831,
7.665,-0.028536122292280197,
7.6675000000000004,-0.03214220330119133,
7.6699999999999999,-0.039979420602321625,
7.6725000000000003,-0.044042270630598068,
7.6749999999999998,-0.048105120658874512,
7.6775000000000002,-0.052047770470380783,
7.6799999999999997,-0.059428215026855469,
7.6825000000000001,-0.06286601722240448,
7.6849999999999996,-0.066231690347194672,
7.6875,-0.069597363471984863,
7.6900000000000004,-0.076977811753749847,
7.6924999999999999,-0.08132915198802948,
7.6950000000000003,-0.086305543780326843,
7.6974999999999998,-0.092051230370998383,
7.7000000000000002,-0.10580241680145264,
7.7024999999999997,-0.11366367340087891,
7.7050000000000001,-0.12193362414836884,
7.7074999999999996,-0.13034781813621521,
7.71,-0.14647901058197021,
7.7125000000000004,-0.15371522307395935,
7.7149999999999999,-0.16020616888999939,
7.7175000000000002,-0.16585569083690643,
7.7199999999999998,-0.17491897940635681,
7.7225000000000001,-0.17859718203544617,
7.7249999999999996,-0.18196284770965576,
7.7275,-0.18516024947166443,
7.7300000000000004,-0.19155502319335938,
7.7324999999999999,-0.19480049610137939,
7.7350000000000003,-0.19794981181621552,
7.7374999999999998,-0.20090679824352264,
7.7400000000000002,-0.20540237426757812,
7.7424999999999997,-0.20658037066459656,
