Data Set 1:Time(s),Data Set 1:EKG(mV),Data Set 1:Heart Rate(bpm),Data Set 2:Time(s),Data Set 2:EKG(mV),Data Set 2:Heart Rate(bpm),Data Set 3:Time(s),Data Set 3:EKG(mV),Data Set 3:Heart Rate(bpm)
0,-0.43888410925865173,49.792533874511719,0,-0.047431986778974533,162.16215515136719,0,-0.10029713809490204,0
0.0050000000000000001,-0.45027932524681091,,0.0025000000000000001,0.021227797493338585,,0.0025000000000000001,-0.09796520322561264,
0.01,-0.45794826745986938,,0.0050000000000000001,0.0085343923419713974,,0.0050000000000000001,-0.094359122216701508,
0.014999999999999999,-0.43539822101593018,,0.0074999999999999997,-0.0051927566528320312,,0.0074999999999999997,-0.089262530207633972,
0.02,-0.39580345153808594,,0.01,-0.020170014351606369,,0.01,-0.082675419747829437,
0.025000000000000001,-0.37577769160270691,,0.012500000000000001,-0.036565661430358887,,0.012500000000000001,-0.07493436336517334,
0.029999999999999999,-0.36616146564483643,,0.014999999999999999,-0.092964768409729004,,0.014999999999999999,-0.058057904243469238,
0.035000000000000003,-0.37022432684898376,,0.017500000000000002,-0.11234144866466522,,0.017500000000000002,-0.050124526023864746,
0.040000000000000001,-0.37707588076591492,,0.02,-0.13039588928222656,,0.02,-0.043272972106933594,
0.044999999999999998,-0.37498435378074646,,0.022499999999999999,-0.1575857400894165,,0.022499999999999999,-0.033993326127529144,
0.050000000000000003,-0.3607763946056366,,0.025000000000000001,-0.16487002372741699,,0.025000000000000001,-0.031805634498596191,
0.055,-0.34897249937057495,,0.0275,-0.16751448810100555,,0.0275,-0.031252704560756683,
0.059999999999999998,-0.33719262480735779,,0.029999999999999999,-0.1659758985042572,,0.029999999999999999,-0.032334528863430023,
0.065000000000000002,-0.33478856086730957,,0.032500000000000001,-0.15573462843894958,,0.032500000000000001,-0.039426486939191818,
0.070000000000000007,-0.33459624648094177,,0.035000000000000003,-0.1507822722196579,,0.035000000000000003,-0.045628946274518967,
0.074999999999999997,-0.33279320597648621,,0.037499999999999999,-0.14852246642112732,,0.037499999999999999,-0.053682528436183929,
0.080000000000000002,-0.32538872957229614,,0.040000000000000001,-0.15046975016593933,,0.040000000000000001,-0.063442990183830261,
0.085000000000000006,-0.31940263509750366,,0.042500000000000003,-0.1684039831161499,,0.042500000000000003,-0.086257457733154297,
0.089999999999999997,-0.31433007121086121,,0.044999999999999998,-0.18256387114524841,,0.044999999999999998,-0.097580552101135254,
0.095000000000000001,-0.31454643607139587,,0.047500000000000001,-0.19739687442779541,,0.047500000000000001,-0.10722081363201141,
0.10000000000000001,-0.31514745950698853,,0.050000000000000003,-0.21004220843315125,,0.050000000000000003,-0.11380791664123535,
0.105,-0.31033933162689209,,0.052499999999999998,-0.21790346503257751,,0.052499999999999998,-0.112918421626091,
0.11,-0.28788548707962036,,0.055,-0.2092488706111908,,0.055,-0.10397534072399139,
0.115,-0.26254674792289734,,0.057500000000000002,-0.1915309876203537,,0.057500000000000002,-0.089310608804225922,
0.12,-0.21617254614830017,,0.059999999999999998,-0.16580760478973389,,0.059999999999999998,-0.06964544951915741,
0.125,-0.18604974448680878,,0.0625,-0.10008077323436737,,0.0625,-0.02108355425298214,
0.13,-0.15056590735912323,,0.065000000000000002,-0.066303811967372894,,0.065000000000000002,0.0041830539703369141,
0.13500000000000001,-0.13484339416027069,,0.067500000000000004,-0.036108892410993576,,0.067500000000000004,0.027574500069022179,
0.14000000000000001,-0.12015461921691895,,0.070000000000000007,-0.011876027099788189,,0.070000000000000007,0.047504108399152756,
0.14499999999999999,-0.11294245719909668,,0.072499999999999995,0.0050004324875771999,,0.072499999999999995,0.072963044047355652,
0.14999999999999999,-0.10032117366790771,,0.074999999999999997,0.016491811722517014,,0.074999999999999997,0.077939435839653015,
0.155,-0.088132619857788086,,0.077499999999999999,0.013294419273734093,,0.077499999999999999,0.078300043940544128,
0.16,-0.061543785035610199,,0.080000000000000002,0.0064909458160400391,,0.080000000000000002,0.074958406388759613,
0.16500000000000001,-0.038681231439113617,,0.082500000000000004,-0.010409554466605186,,0.082500000000000004,0.061808228492736816,
0.17000000000000001,-0.0030531487427651882,,0.085000000000000006,-0.017549594864249229,,0.085000000000000006,0.054331623017787933,
0.17499999999999999,0.01490513514727354,,0.087499999999999994,-0.022718310356140137,,0.087499999999999994,0.047480069100856781,
0.17999999999999999,0.021973054856061935,,0.089999999999999997,-0.025675296783447266,,0.089999999999999997,0.041806500405073166,
0.185,0.011443297378718853,,0.092499999999999999,-0.025819540023803711,,0.092499999999999999,0.034858785569667816,
0.19,-0.019232433289289474,,0.095000000000000001,-0.023824175819754601,,0.095000000000000001,0.033272109925746918,
0.19500000000000001,-0.040412150323390961,,0.097500000000000003,-0.021035473793745041,,0.097500000000000003,0.032502811402082443,
0.20000000000000001,-0.059067606925964355,,0.10000000000000001,-0.017886161804199219,,0.10000000000000001,0.032046042382717133,
0.20499999999999999,-0.059476297348737717,,0.10249999999999999,-0.011972188949584961,,0.10249999999999999,0.030459364876151085,
0.20999999999999999,-0.046350162476301193,,0.105,-0.010024905204772949,,0.105,0.028656324371695518,
0.215,-0.033993326127529144,,0.1075,-0.0094238920137286186,,0.1075,0.025963783264160156,
0.22,-0.018342932686209679,,0.11,-0.010625919327139854,,0.11,0.022333662956953049,
0.22500000000000001,-0.012380878441035748,,0.1125,-0.019881527870893478,,0.1125,0.012789567932486534,
0.23000000000000001,-0.011467337608337402,,0.115,-0.028103392571210861,,0.115,0.0071881217882037163,
0.23499999999999999,-0.01584271714091301,,0.11749999999999999,-0.038272541016340256,,0.11749999999999999,0.0013222297420725226,
0.23999999999999999,-0.02815147303044796,,0.12,-0.04969179630279541,,0.12,-0.0046398243866860867,
0.245,-0.038392744958400726,,0.1225,-0.072001419961452484,,0.1225,-0.016035040840506554,
0.25,-0.053273838013410568,,0.125,-0.080728136003017426,,0.125,-0.020963352173566818,
0.255,-0.061447620391845703,,0.1275,-0.086642108857631683,,0.1275,-0.025002162903547287,
0.26000000000000001,-0.070847474038600922,,0.13,-0.089310608804225922,,0.13,-0.027790864929556847,
0.26500000000000001,-0.075823865830898285,,0.13250000000000001,-0.085488162934780121,,0.13250000000000001,-0.028127431869506836,
0.27000000000000002,-0.081978246569633484,,0.13500000000000001,-0.080343484878540039,,0.13500000000000001,-0.02507428452372551,
0.27500000000000002,-0.08486311137676239,,0.13750000000000001,-0.074453555047512054,,0.13750000000000001,-0.019641121849417686,
0.28000000000000003,-0.086353622376918793,,0.14000000000000001,-0.069044433534145355,,0.14000000000000001,-0.011900067329406738,
0.28499999999999998,-0.085391998291015625,,0.14249999999999999,-0.063731476664543152,,0.14249999999999999,0.0087507572025060654,
0.28999999999999998,-0.082266733050346375,,0.14499999999999999,-0.065005622804164886,,0.14499999999999999,0.02029021643102169,
0.29499999999999998,-0.079982876777648926,,0.14749999999999999,-0.069068476557731628,,0.14749999999999999,0.031517148017883301,
0.29999999999999999,-0.076881647109985352,,0.14999999999999999,-0.075511336326599121,,0.14999999999999999,0.04154205322265625,
0.30499999999999999,-0.074717998504638672,,0.1525,-0.092628203332424164,,0.1525,0.055629812180995941,
0.31,-0.070510908961296082,,0.155,-0.10157128423452377,,0.155,0.059308014810085297,
0.315,-0.067217350006103516,,0.1575,-0.10957678407430649,,0.1575,0.061135094612836838,
0.32000000000000001,-0.06286601722240448,,0.16,-0.11597156524658203,,0.16,0.061808228492736816,
0.32500000000000001,-0.061231255531311035,,0.16250000000000001,-0.12207786738872528,,0.16250000000000001,0.063442990183830261,
0.33000000000000002,-0.061447620391845703,,0.16500000000000001,-0.12135665118694305,,0.16500000000000001,0.066087447106838226,
0.33500000000000002,-0.063058339059352875,,0.16750000000000001,-0.11818329989910126,,0.16750000000000001,0.070655152201652527,
0.34000000000000002,-0.066544219851493835,,0.17000000000000001,-0.11272609233856201,,0.17000000000000001,0.077122054994106293,
0.34499999999999997,-0.068659782409667969,,0.17249999999999999,-0.09659489244222641,,0.17249999999999999,0.093084976077079773,
0.34999999999999998,-0.069885849952697754,,0.17499999999999999,-0.086930595338344574,,0.17499999999999999,0.10032117366790771,
0.35499999999999998,-0.068443417549133301,,0.17749999999999999,-0.076977811753749847,,0.17749999999999999,0.1052735298871994,
0.35999999999999999,-0.061808228492736816,,0.17999999999999999,-0.067409679293632507,,0.17999999999999999,0.1067640408873558,
0.36499999999999999,-0.054572027176618576,,0.1825,-0.05151887983083725,,0.1825,0.097316108644008636,
0.37,-0.041878622025251389,,0.185,-0.045797228813171387,,0.185,0.087074838578701019,
0.375,-0.034377973526716232,,0.1875,-0.041590135544538498,,0.1875,0.074838206171989441,
0.38,-0.027550458908081055,,0.19,-0.038561027497053146,,0.19,0.062769852578639984,
0.38500000000000001,-0.026252269744873047,,0.1925,-0.033993326127529144,,0.1925,0.048658054322004318,
0.39000000000000001,-0.027045607566833496,,0.19500000000000001,-0.03122866153717041,,0.19500000000000001,0.051038067787885666,
0.39500000000000002,-0.027790864929556847,,0.19750000000000001,-0.02752641960978508,,0.19750000000000001,0.061615906655788422,
0.40000000000000002,-0.027959149330854416,,0.20000000000000001,-0.022742351517081261,,0.20000000000000001,0.08058389276266098,
0.40500000000000003,-0.028055310249328613,,0.20250000000000001,-0.011034607887268066,,0.20250000000000001,0.13849756121635437,
0.40999999999999998,-0.029810270294547081,,0.20499999999999999,-0.0054331622086465359,,0.20499999999999999,0.17196199297904968,
0.41499999999999998,-0.031997960060834885,,0.20749999999999999,-0.0012020270805805922,,0.20749999999999999,0.20328681170940399,
0.41999999999999998,-0.033776961266994476,,0.20999999999999999,0.0008895000210031867,,0.20999999999999999,0.22785624861717224,
0.42499999999999999,-0.031637351959943771,,0.21249999999999999,-0.0035580000840127468,,0.21249999999999999,0.23865044116973877,
0.42999999999999999,-0.022405784577131271,,0.215,-0.010169148445129395,,0.215,0.21694183349609375,
0.435,-0.014712810516357422,,0.2175,-0.019064148887991905,,0.2175,0.17338037490844727,
0.44,-0.0085103511810302734,,0.22,-0.029377540573477745,,0.22,0.10669191926717758,
0.44500000000000001,-0.011226932518184185,,0.2225,-0.049956243485212326,,0.2225,-0.093854270875453949,
0.45000000000000001,-0.024521350860595703,,0.22500000000000001,-0.058130025863647461,,0.22500000000000001,-0.22244712710380554,
0.45500000000000002,-0.034834742546081543,,0.22750000000000001,-0.063755512237548828,,0.22750000000000001,-0.36368530988693237,
0.46000000000000002,-0.042888324707746506,,0.23000000000000001,-0.066255733370780945,,0.23000000000000001,-0.511077880859375,
0.46500000000000002,-0.040676593780517578,,0.23250000000000001,-0.060726404190063477,,0.23250000000000001,-0.79312145709991455,
0.46999999999999997,-0.029786229133605957,,0.23499999999999999,-0.052360296249389648,,0.23499999999999999,-0.91094416379928589,
0.47499999999999998,-0.022814473137259483,,0.23749999999999999,-0.040195785462856293,,0.23749999999999999,-1.0024905204772949,
0.47999999999999998,-0.020506581291556358,,0.23999999999999999,-0.02428094670176506,,0.23999999999999999,-1.0611494779586792,
0.48499999999999999,-0.025218527764081955,,0.24249999999999999,0.018198689445853233,,0.24249999999999999,-1.0633372068405151,
0.48999999999999999,-0.036806069314479828,,0.245,0.04370570182800293,,0.245,-1.0053514242172241,
0.495,-0.043441258370876312,,0.2475,0.070655152201652527,,0.2475,-0.91178560256958008,
0.5,-0.04719158262014389,,0.25,0.097243987023830414,,0.25,-0.78893840312957764,
0.505,-0.045316420495510101,,0.2525,0.13873796164989471,,0.2525,-0.49052318930625916,
0.51000000000000001,-0.038440823554992676,,0.255,0.14691174030303955,,0.255,-0.33481261134147644,
0.51500000000000001,-0.033296149224042892,,0.25750000000000001,0.14157474040985107,,0.25750000000000001,-0.187612384557724,
0.52000000000000002,-0.028103392571210861,,0.26000000000000001,0.11895259469747543,,0.26000000000000001,-0.056831836700439453,
0.52500000000000002,-0.028031270951032639,,0.26250000000000001,0.0095440950244665146,,0.26250000000000001,0.13551652431488037,
0.53000000000000003,-0.034954946488142014,,0.26500000000000001,-0.080415606498718262,,0.26500000000000001,0.19369463622570038,
0.53500000000000003,-0.044354796409606934,,0.26750000000000002,-0.19323787093162537,,0.26750000000000002,0.22848129272460938,
0.54000000000000004,-0.062986217439174652,,0.27000000000000002,-0.32594165205955505,,0.27000000000000002,0.24372300505638123,
0.54500000000000004,-0.075198814272880554,,0.27250000000000002,-0.62853991985321045,,0.27250000000000002,0.23557326197624207,
0.55000000000000004,-0.086834430694580078,,0.27500000000000002,-0.78268790245056152,,0.27500000000000002,0.22223076224327087,
0.55500000000000005,-0.087243124842643738,,0.27750000000000002,-0.92625796794891357,,0.27750000000000002,0.20814299583435059,
0.56000000000000005,-0.075463257730007172,,0.28000000000000003,-1.0494898557662964,,0.28000000000000003,0.19578616321086884,
0.56499999999999995,-0.060822568833827972,,0.28249999999999997,-1.2006086111068726,,0.28249999999999997,0.17965495586395264,
0.56999999999999995,-0.03430585190653801,,0.28499999999999998,-1.2163071632385254,,0.28499999999999998,0.17477473616600037,
0.57499999999999996,-0.017621716484427452,,0.28749999999999998,-1.1886364221572876,,0.28749999999999998,0.17023107409477234,
0.57999999999999996,-0.00057697296142578125,,0.28999999999999998,-1.119063138961792,,0.28999999999999998,0.1645815372467041,
0.58499999999999996,0.0029810271225869656,,0.29249999999999998,-0.87615752220153809,,0.29249999999999998,0.14590203762054443,
0.58999999999999997,-0.0035099189262837172,,0.29499999999999998,-0.72008633613586426,,0.29499999999999998,0.13239125907421112,
0.59499999999999997,-0.012380878441035748,,0.29749999999999999,-0.55507206916809082,,0.29749999999999999,0.11676490306854248,
0.59999999999999998,-0.020482540130615234,,0.29999999999999999,-0.39200505614280701,,0.29999999999999999,0.10012885183095932,
0.60499999999999998,-0.013174216262996197,,0.30249999999999999,-0.10974507033824921,,0.30249999999999999,0.06856362521648407,
0.60999999999999999,0.029473703354597092,,0.30499999999999999,-0.0041590137407183647,,0.30499999999999999,0.055725973099470139,
0.61499999999999999,0.078997217118740082,,0.3075,0.073131322860717773,,0.3075,0.045628946274518967,
0.62,0.16325931251049042,,0.31,0.12222211062908173,,0.31,0.038272541016340256,
0.625,0.19984900951385498,,0.3125,0.14792144298553467,,0.3125,0.029906433075666428,
0.63,0.16773085296154022,,0.315,0.1344587504863739,,0.315,0.027406215667724609,
0.63500000000000001,0.060437917709350586,,0.3175,0.11113941669464111,,0.3175,0.024930041283369064,
0.64000000000000001,-0.23701569437980652,,0.32000000000000001,0.08349280059337616,,0.32000000000000001,0.021804770454764366,
0.64500000000000002,-0.49598038196563721,,0.32250000000000001,0.031925838440656662,,0.32250000000000001,0.01216451358050108,
0.65000000000000002,-0.86884915828704834,,0.32500000000000001,0.013150176033377647,,0.32500000000000001,0.0056254863739013672,
0.65500000000000003,-1.0329499244689941,,0.32750000000000001,0.00014424324035644531,,0.32750000000000001,-0.0016347568016499281,
0.66000000000000003,-1.0604523420333862,,0.33000000000000002,-0.0075968108139932156,,0.33000000000000002,-0.0091834869235754013,
0.66500000000000004,-0.92488765716552734,,0.33250000000000002,-0.012837648391723633,,0.33250000000000002,-0.023102959617972374,
0.67000000000000004,-0.56363046169281006,,0.33500000000000002,-0.01353482436388731,,0.33500000000000002,-0.028680365532636642,
0.67500000000000004,-0.29190024733543396,,0.33750000000000002,-0.014833013527095318,,0.33750000000000002,-0.03305574506521225,
0.68000000000000005,0.039955377578735352,,0.34000000000000002,-0.017597675323486328,,0.34000000000000002,-0.036253135651350021,
0.68500000000000005,0.17023107409477234,,0.34250000000000003,-0.02860824391245842,,0.34250000000000003,-0.04012366384267807,
0.68999999999999995,0.22850534319877625,,0.34499999999999997,-0.036301217973232269,,0.34499999999999997,-0.041566096246242523,
0.69499999999999995,0.20434460043907166,,0.34749999999999998,-0.044571161270141602,,0.34749999999999998,-0.043272972106933594,
0.69999999999999996,0.1338096559047699,,0.34999999999999998,-0.052624743431806564,,0.34999999999999998,-0.045652985572814941,
0.70499999999999996,0.089599095284938812,,0.35249999999999998,-0.065342187881469727,,0.35249999999999998,-0.053682528436183929,
0.70999999999999996,0.045316420495510101,,0.35499999999999998,-0.069092512130737305,,0.35499999999999998,-0.059572458267211914,
0.71499999999999997,0.029593905434012413,,0.35749999999999998,-0.070943638682365417,,0.35749999999999998,-0.066688463091850281,
0.71999999999999997,0.018439095467329025,,0.35999999999999999,-0.071039795875549316,,0.35999999999999999,-0.074766084551811218,
0.72499999999999998,0.015025338158011436,,0.36249999999999999,-0.067746244370937347,,0.36249999999999999,-0.092556081712245941,
0.72999999999999998,0.011539459228515625,,0.36499999999999999,-0.065414309501647949,,0.36499999999999999,-0.10142704099416733,
0.73499999999999999,0.0088709592819213867,,0.36749999999999999,-0.063394904136657715,,0.36749999999999999,-0.10967294871807098,
0.73999999999999999,0.0030050675850361586,,0.37,-0.062096714973449707,,0.37,-0.11695723235607147,
0.745,-0.0021155676804482937,,0.3725,-0.062697730958461761,,0.3725,-0.12734274566173553,
0.75,-0.010169148445129395,,0.375,-0.0646209716796875,,0.375,-0.13017952442169189,
0.755,-0.014712810516357422,,0.3775,-0.067385636270046234,,0.3775,-0.13154983520507812,
0.76000000000000001,-0.019136270508170128,,0.38,-0.070703230798244476,,0.38,-0.13167004287242889,
0.76500000000000001,-0.020722946152091026,,0.38250000000000001,-0.077578827738761902,,0.38250000000000001,-0.12993912398815155,
0.77000000000000002,-0.022790431976318359,,0.38500000000000001,-0.080559849739074707,,0.38500000000000001,-0.1291457861661911,
0.77500000000000002,-0.02507428452372551,,0.38750000000000001,-0.083060070872306824,,0.38750000000000001,-0.1290496289730072,
0.78000000000000003,-0.030892094597220421,,0.39000000000000001,-0.085007354617118835,,0.39000000000000001,-0.130083367228508,
0.78500000000000003,-0.036012731492519379,,0.39250000000000002,-0.087820097804069519,,0.39250000000000002,-0.13621370494365692,
0.79000000000000004,-0.044547121971845627,,0.39500000000000002,-0.08907020092010498,,0.39500000000000002,-0.14116606116294861,
0.79500000000000004,-0.050509177148342133,,0.39750000000000002,-0.090512633323669434,,0.39750000000000002,-0.14698386192321777,
0.80000000000000004,-0.060486000031232834,,0.40000000000000002,-0.092363759875297546,,0.40000000000000002,-0.15323440730571747,
0.80500000000000005,-0.068539582192897797,,0.40250000000000002,-0.097556516528129578,,0.40250000000000002,-0.16518256068229675,
0.81000000000000005,-0.083516836166381836,,0.40500000000000003,-0.10087411105632782,,0.40500000000000003,-0.17023107409477234,
0.81499999999999995,-0.095224581658840179,,0.40749999999999997,-0.10448019206523895,,0.40749999999999997,-0.17453432083129883,
0.81999999999999995,-0.11412044614553452,,0.40999999999999998,-0.10818243026733398,,0.40999999999999998,-0.17818848788738251,
0.82499999999999996,-0.12695810198783875,,0.41249999999999998,-0.11498590558767319,,0.41249999999999998,-0.18477559089660645,
0.82999999999999996,-0.14626264572143555,,0.41499999999999998,-0.11775057017803192,,0.41499999999999998,-0.18842975795269012,
0.83499999999999996,-0.15953302383422852,,0.41749999999999998,-0.1200103759765625,,0.41749999999999998,-0.19278109073638916,
0.83999999999999997,-0.1807127445936203,,0.41999999999999998,-0.12178938090801239,,0.41999999999999998,-0.19797384738922119,
0.84499999999999997,-0.19573807716369629,,0.42249999999999999,-0.12469828128814697,,0.42249999999999999,-0.2107393741607666,
0.84999999999999998,-0.21898528933525085,,0.42499999999999999,-0.12630900740623474,,0.42499999999999999,-0.21780729293823242,
0.85499999999999998,-0.23439526557922363,,0.42749999999999999,-0.12835244834423065,,0.42749999999999999,-0.22482714056968689,
0.85999999999999999,-0.25620004534721375,,0.42999999999999999,-0.13104498386383057,,0.42999999999999999,-0.23141424357891083,
0.86499999999999999,-0.26908576488494873,,0.4325,-0.13864180445671082,,0.4325,-0.242160364985466,
0.87,-0.28473615646362305,,0.435,-0.14342586696147919,,0.435,-0.24605493247509003,
0.875,-0.29206854104995728,,0.4375,-0.14861862361431122,,0.4375,-0.2490600049495697,
0.88,-0.29730936884880066,,0.44,-0.15397965908050537,,0.44,-0.25141596794128418,
0.88500000000000001,-0.29632371664047241,,0.4425,-0.1644853800535202,,0.4425,-0.25528651475906372,
0.89000000000000001,-0.28656324744224548,,0.44500000000000001,-0.16943773627281189,,0.44500000000000001,-0.25728186964988708,
0.89500000000000002,-0.27348518371582031,,0.44750000000000001,-0.17422179877758026,,0.44750000000000001,-0.25946956872940063,
0.90000000000000002,-0.24285754561424255,,0.45000000000000001,-0.17900586128234863,,0.45000000000000001,-0.26187360286712646,
0.90500000000000003,-0.21552345156669617,,0.45250000000000001,-0.1893913745880127,,0.45250000000000001,-0.26658555865287781,
0.91000000000000003,-0.16741833090782166,,0.45500000000000002,-0.1954495906829834,,0.45500000000000002,-0.2684607207775116,
0.91500000000000004,-0.13366541266441345,,0.45750000000000002,-0.20227710902690887,,0.45750000000000002,-0.26973485946655273,
0.92000000000000004,-0.085680484771728516,,0.46000000000000002,-0.20992200076580048,,0.46000000000000002,-0.27028781175613403,
0.92500000000000004,-0.057336688041687012,,0.46250000000000002,-0.22732734680175781,,0.46250000000000002,-0.26913386583328247,
0.93000000000000005,-0.020891230553388596,,0.46500000000000002,-0.23667912185192108,,0.46500000000000002,-0.26764333248138428,
0.93500000000000005,-4.8081081331474707e-05,,0.46750000000000003,-0.2461751401424408,,0.46750000000000003,-0.26576817035675049,
0.93999999999999995,0.02706964872777462,,0.46999999999999997,-0.25555095076560974,,0.46999999999999997,-0.26362857222557068,
0.94499999999999995,0.042407512664794922,,0.47249999999999998,-0.27310055494308472,,0.47249999999999998,-0.25855600833892822,
0.94999999999999996,0.060317717492580414,,0.47499999999999998,-0.28108200430870056,,0.47499999999999998,-0.25535863637924194,
0.95499999999999996,0.068203017115592957,,0.47749999999999998,-0.28853458166122437,,0.47749999999999998,-0.25134384632110596,
0.95999999999999996,0.074165068566799164,,0.47999999999999998,-0.29550632834434509,,0.47999999999999998,-0.24619917571544647,
0.96499999999999997,0.075439214706420898,,0.48249999999999998,-0.30872863531112671,,0.48249999999999998,-0.23102959990501404,
0.96999999999999997,0.076352760195732117,,0.48499999999999999,-0.31531572341918945,,0.48499999999999999,-0.22059600055217743,
0.97499999999999998,0.077891349792480469,,0.48749999999999999,-0.32209515571594238,,0.48749999999999999,-0.20823916792869568,
0.97999999999999998,0.082338854670524597,,0.48999999999999999,-0.32913905382156372,,0.48999999999999999,-0.19412736594676971,
0.98499999999999999,0.085896849632263184,,0.49249999999999999,-0.34394800662994385,,0.49249999999999999,-0.1622496098279953,
0.98999999999999999,0.08952697366476059,,0.495,-0.35149675607681274,,0.495,-0.14551739394664764,
0.995,0.089599095284938812,,0.4975,-0.35885316133499146,,0.4975,-0.12900154292583466,
1,0.086353622376918793,60,0.5,-0.36580085754394531,,0.5,-0.11320690810680389,
1.0049999999999999,0.083228349685668945,,0.50249999999999995,-0.3774605393409729,,0.50249999999999995,-0.085271798074245453,
1.01,0.07983863353729248,,0.505,-0.38178783655166626,,0.505,-0.073419809341430664,
1.0149999999999999,0.079237625002861023,,0.50749999999999995,-0.38493713736534119,,0.50749999999999995,-0.062890052795410156,
1.02,0.08024732768535614,,0.51000000000000001,-0.38686037063598633,,0.51000000000000001,-0.053466163575649261,
1.0249999999999999,0.081040665507316589,,0.51249999999999996,-0.38676422834396362,,0.51249999999999996,-0.036397378891706467,
1.03,0.080800257623195648,,0.51500000000000001,-0.38469672203063965,,0.51500000000000001,-0.027983188629150391,
1.0349999999999999,0.079574190080165863,,0.51749999999999996,-0.38118681311607361,,0.51749999999999996,-0.019256472587585449,
1.04,0.077362462878227234,,0.52000000000000002,-0.37611424922943115,,0.52000000000000002,-0.010024905204772949,
1.0449999999999999,0.076593160629272461,,0.52249999999999996,-0.36070427298545837,,0.52249999999999996,0.0097364187240600586,
1.05,0.077242255210876465,,0.52500000000000002,-0.35010239481925964,,0.52500000000000002,0.019737284630537033,
1.0549999999999999,0.078444287180900574,,0.52749999999999997,-0.33748111128807068,,0.52749999999999997,0.029305418953299522,
1.0600000000000001,0.079526111483573914,,0.53000000000000003,-0.32284042239189148,,0.53000000000000003,0.03796001523733139,
1.0649999999999999,0.078732773661613464,,0.53249999999999997,-0.28829416632652283,,0.53249999999999997,0.050701498985290527,
1.0700000000000001,0.074621841311454773,,0.53500000000000003,-0.26908576488494873,,0.53500000000000003,0.054187379777431488,
1.075,0.070414744317531586,,0.53749999999999998,-0.24920424818992615,,0.53749999999999998,0.055629812180995941,
1.0800000000000001,0.064140163362026215,,0.54000000000000004,-0.22917847335338593,,0.54000000000000004,0.055124960839748383,
1.085,0.061399541795253754,,0.54249999999999998,-0.19064149260520935,,0.54249999999999998,0.049860082566738129,
1.0900000000000001,0.060774486511945724,,0.54500000000000004,-0.17294764518737793,,0.54500000000000004,0.046109758317470551,
1.095,0.062313079833984375,,0.54749999999999999,-0.15664815902709961,,0.54749999999999999,0.042431555688381195,
1.1000000000000001,0.06531815230846405,,0.55000000000000004,-0.14188727736473083,,0.55000000000000004,0.03937840461730957,
1.105,0.066303811967372894,,0.55249999999999999,-0.1168370246887207,,0.55249999999999999,0.03692626953125,
1.1100000000000001,0.064981579780578613,,0.55500000000000005,-0.10637938976287842,,0.55500000000000005,0.037984054535627365,
1.115,0.062649652361869812,,0.5575,-0.097195908427238464,,0.5575,0.040532350540161133,
1.1200000000000001,0.059380136430263519,,0.56000000000000005,-0.089142322540283203,,0.56000000000000005,0.044306717813014984,
1.125,0.05875508114695549,,0.5625,-0.076328717172145844,,0.5625,0.053730607032775879,
1.1299999999999999,0.061135094612836838,,0.56499999999999995,-0.071424447000026703,,0.56499999999999995,0.058274269104003906,
1.135,0.064092084765434265,,0.5675,-0.067385636270046234,,0.5675,0.06200055405497551,
1.1399999999999999,0.067914530634880066,,0.56999999999999995,-0.064092084765434265,,0.56999999999999995,0.064476728439331055,
1.145,0.068683825433254242,,0.57250000000000001,-0.058803163468837738,,0.57250000000000001,0.064981579780578613,
1.1499999999999999,0.066760584712028503,,0.57499999999999996,-0.056230824440717697,,0.57499999999999996,0.063106417655944824,
1.155,0.064308449625968933,,0.57750000000000001,-0.053418081253767014,,0.57750000000000001,0.060221552848815918,
1.1599999999999999,0.061183176934719086,,0.57999999999999996,-0.050148569047451019,,0.57999999999999996,0.05675971508026123,
1.165,0.060437917709350586,,0.58250000000000002,-0.042215190827846527,,0.58250000000000002,0.050004325807094574,
1.1699999999999999,0.061543785035610199,,0.58499999999999996,-0.037791728973388672,,0.58499999999999996,0.04752814769744873,
1.175,0.063058339059352875,,0.58750000000000002,-0.03334423154592514,,0.58750000000000002,0.04598955437541008,
1.1799999999999999,0.06502966582775116,,0.58999999999999997,-0.029161175712943077,,0.58999999999999997,0.045412581413984299,
1.1850000000000001,0.065582595765590668,,0.59250000000000003,-0.022525986656546593,,0.59250000000000003,0.046614609658718109,
1.1899999999999999,0.06502966582775116,,0.59499999999999997,-0.02029021643102169,,0.59499999999999997,0.047840677201747894,
1.1950000000000001,0.064116120338439941,,0.59750000000000003,-0.018751621246337891,,0.59750000000000003,0.049066744744777679,
1.2,0.062962174415588379,,0.59999999999999998,-0.017765959724783897,,0.59999999999999998,0.050004325807094574,
1.2050000000000001,0.063034296035766602,,0.60250000000000004,-0.016732215881347656,,0.60250000000000004,0.050509177148342133,
1.21,0.064813300967216492,,0.60499999999999998,-0.016371607780456543,,0.60499999999999998,0.050004325807094574,
1.2150000000000001,0.066544219851493835,,0.60750000000000004,-0.015986960381269455,,0.60750000000000004,0.049210987985134125,
1.22,0.067962609231472015,,0.60999999999999999,-0.015554229728877544,,0.60999999999999999,0.048297446221113205,
1.2250000000000001,0.06707310676574707,,0.61250000000000004,-0.014977256767451763,,0.61250000000000004,0.047167539596557617,
1.23,0.062793895602226257,,0.61499999999999999,-0.015025338158011436,,0.61499999999999999,0.04735986515879631,
1.2350000000000001,0.059019528329372406,,0.61750000000000005,-0.01538594625890255,,0.61750000000000005,0.048177242279052734,
1.24,0.054644148796796799,,0.62,-0.016059082001447678,,0.62,0.049619674682617188,
1.2450000000000001,0.053562324494123459,,0.62250000000000005,-0.018174648284912109,,0.62250000000000005,0.053706567734479904,
1.25,0.054211419075727463,,0.625,-0.019304554909467697,,0.625,0.055942337960004807,
1.2549999999999999,0.055028796195983887,,0.62749999999999995,-0.02029021643102169,,0.62749999999999995,0.057961743324995041,
1.26,0.055269204080104828,,0.63,-0.020987391471862793,,0.63,0.059524379670619965,
1.2649999999999999,0.054860513657331467,,0.63249999999999995,-0.021179717034101486,,0.63249999999999995,0.060894690454006195,
1.27,0.054668188095092773,,0.63500000000000001,-0.020650824531912804,,0.63500000000000001,0.060630243271589279,
1.2749999999999999,0.055437486618757248,,0.63749999999999996,-0.019857486709952354,,0.63749999999999996,0.059788823127746582,
1.28,0.057456891983747482,,0.64000000000000001,-0.018943946808576584,,0.64000000000000001,0.058562755584716797,
1.2849999999999999,0.058442555367946625,,0.64249999999999996,-0.017405351623892784,,0.64249999999999996,0.055509608238935471,
1.29,0.057913661003112793,,0.64500000000000002,-0.017116865143179893,,0.64500000000000002,0.05397101491689682,
1.2949999999999999,0.0561346635222435,,0.64749999999999996,-0.017309188842773438,,0.64749999999999996,0.052552621811628342,
1.3,0.052624743431806564,,0.65000000000000002,-0.017982324585318565,,0.65000000000000002,0.050292812287807465,
1.3049999999999999,0.050581298768520355,,0.65249999999999997,-0.02062678337097168,,0.65249999999999997,0.049427352845668793,
1.3100000000000001,0.048513811081647873,,0.65500000000000003,-0.022405784577131271,,0.65500000000000003,0.048658054322004318,
1.3149999999999999,0.047335825860500336,,0.65749999999999997,-0.024304986000061035,,0.65749999999999997,0.047936838120222092,
1.3200000000000001,0.044715404510498047,,0.66000000000000003,-0.026156108826398849,,0.66000000000000003,0.046350162476301193,
1.325,0.042215190827846527,,0.66249999999999998,-0.029377540573477745,,0.66249999999999998,0.045388542115688324,
1.3300000000000001,0.038368701934814453,,0.66500000000000004,-0.030651688575744629,,0.66500000000000004,0.044258635491132736,
1.335,0.036733947694301605,,0.66749999999999998,-0.031661391258239746,,0.66749999999999998,0.042936407029628754,
1.3400000000000001,0.036998391151428223,,0.67000000000000004,-0.032454729080200195,,0.67000000000000004,0.041469931602478027,
1.345,0.038705270737409592,,0.67249999999999999,-0.033632718026638031,,0.67249999999999999,0.038368701934814453,
1.3500000000000001,0.040941040962934494,,0.67500000000000004,-0.034113526344299316,,0.67500000000000004,0.03692626953125,
1.355,0.039931338280439377,,0.67749999999999999,-0.034546256065368652,,0.67749999999999999,0.035652123391628265,
1.3600000000000001,0.031613312661647797,,0.68000000000000005,-0.034978985786437988,,0.68000000000000005,0.034017365425825119,
1.365,0.021564364433288574,,0.6825,-0.03584444522857666,,0.6825,0.033728878945112228,
1.3700000000000001,0.0036782026290893555,,0.68500000000000005,-0.036277174949645996,,0.68500000000000005,0.033801000565290451,
1.375,-0.0063226623460650444,,0.6875,-0.036709904670715332,,0.6875,0.03413756936788559,
1.3799999999999999,-0.012573203071951866,,0.68999999999999995,-0.037166677415370941,,0.68999999999999995,0.035219393670558929,
1.385,-0.0094719734042882919,,0.6925,-0.038104258477687836,,0.6925,0.035724245011806488,
1.3899999999999999,0.0042792162857949734,,0.69499999999999995,-0.038633149117231369,,0.69499999999999995,0.036060810089111328,
1.395,0.016660094261169434,,0.69750000000000001,-0.039162039756774902,,0.69750000000000001,0.036084853112697601,
1.3999999999999999,0.034906864166259766,,0.69999999999999996,-0.039714973419904709,,0.69999999999999996,0.035051107406616211,
1.405,0.044715404510498047,,0.70250000000000001,-0.040868919342756271,,0.70250000000000001,0.033993326127529144,
1.4099999999999999,0.053562324494123459,,0.70499999999999996,-0.041445892304182053,,0.70499999999999996,0.032623015344142914,
1.415,0.054764352738857269,,0.70750000000000002,-0.041998825967311859,,0.70750000000000002,0.031036337837576866,
1.4199999999999999,0.050028365105390549,,0.70999999999999996,-0.042527716606855392,,0.70999999999999996,0.0276947021484375,
1.425,0.045172177255153656,,0.71250000000000002,-0.043297015130519867,,0.71250000000000002,0.026204189285635948,
1.4299999999999999,0.045677028596401215,,0.71499999999999997,-0.04353741928935051,,0.71499999999999997,0.025002162903547287,
1.4350000000000001,0.059452258050441742,,0.71750000000000003,-0.043681662529706955,,0.71750000000000003,0.02416074275970459,
1.4399999999999999,0.11039416491985321,,0.71999999999999997,-0.043801866471767426,,0.71999999999999997,0.023800134658813477,
1.4450000000000001,0.16205728054046631,,0.72250000000000003,-0.044282674789428711,,0.72250000000000003,0.024256905540823936,
1.45,0.23886680603027344,,0.72499999999999998,-0.044883690774440765,,0.72499999999999998,0.025002162903547287,
1.4550000000000001,0.26064753532409668,,0.72750000000000004,-0.045893393456935883,,0.72750000000000004,0.025963783264160156,
1.46,0.19246856868267059,,0.72999999999999998,-0.047383904457092285,,0.72999999999999998,0.027911067008972168,
1.4650000000000001,0.057240527123212814,,0.73250000000000004,-0.051711201667785645,,0.73250000000000004,0.028632283210754395,
1.47,-0.27197062969207764,,0.73499999999999999,-0.054355662316083908,,0.73499999999999999,0.02906501293182373,
1.4750000000000001,-0.53552711009979248,,0.73750000000000004,-0.057024162262678146,,0.73750000000000004,0.029161175712943077,
1.48,-0.88180702924728394,,0.73999999999999999,-0.059476297348737717,,0.73999999999999999,0.028319757431745529,
1.4850000000000001,-1.0091497898101807,,0.74250000000000005,-0.062697730958461761,,0.74250000000000005,0.027502378448843956,
1.49,-0.9724879264831543,,0.745,-0.063130460679531097,,0.745,0.026564797386527061,
1.4950000000000001,-0.80300211906433105,,0.74750000000000005,-0.062745809555053711,,0.74750000000000005,0.025627216324210167,
1.5,-0.42342603206634521,,0.75,-0.061688028275966644,,0.75,0.024136703461408615,
1.5049999999999999,-0.16357183456420898,,0.75249999999999995,-0.058562755584716797,,0.75249999999999995,0.023776095360517502,
1.51,0.12635707855224609,,0.755,-0.057192444801330566,,0.755,0.023703973740339279,
1.5149999999999999,0.22480309009552002,,0.75749999999999995,-0.05642315000295639,,0.75749999999999995,0.023896297439932823,
1.52,0.24812242388725281,,0.76000000000000001,-0.056495271623134613,,0.76000000000000001,0.024881958961486816,
1.5249999999999999,0.21429738402366638,,0.76249999999999996,-0.059572458267211914,,0.76249999999999996,0.025482973083853722,
1.53,0.14724831283092499,,0.76500000000000001,-0.062337122857570648,,0.76500000000000001,0.026035904884338379,
1.5349999999999999,0.11176447570323944,,0.76749999999999996,-0.065534517168998718,,0.76749999999999996,0.026516716927289963,
1.54,0.080391570925712585,,0.77000000000000002,-0.068779990077018738,,0.77000000000000002,0.027093689888715744,
1.5449999999999999,0.069789692759513855,,0.77249999999999996,-0.073612138628959656,,0.77249999999999996,0.027213891968131065,
1.55,0.060245595872402191,,0.77500000000000002,-0.074525676667690277,,0.77500000000000002,0.027261972427368164,
1.5549999999999999,0.055197082459926605,,0.77749999999999997,-0.074237190186977386,,0.77749999999999997,0.027286013588309288,
1.5600000000000001,0.048513811081647873,,0.78000000000000003,-0.072794757783412933,,0.78000000000000003,0.027213891968131065,
1.5649999999999999,0.044715404510498047,,0.78249999999999997,-0.067361593246459961,,0.78249999999999997,0.027021568268537521,
1.5700000000000001,0.039594769477844238,,0.78500000000000003,-0.064140163362026215,,0.78500000000000003,0.026660960167646408,
1.575,0.036060810089111328,,0.78749999999999998,-0.061135094612836838,,0.78749999999999998,0.026083987206220627,
1.5800000000000001,0.030243000015616417,,0.79000000000000004,-0.058706998825073242,,0.79000000000000004,0.02428094670176506,
1.585,0.026156108826398849,,0.79249999999999998,-0.05642315000295639,,0.79249999999999998,0.023175081238150597,
1.5900000000000001,0.020145973190665245,,0.79500000000000004,-0.056687593460083008,,0.79500000000000004,0.022093256935477257,
1.595,0.016227364540100098,,0.79749999999999999,-0.057769417762756348,,0.79749999999999999,0.021179717034101486,
1.6000000000000001,0.0099047031253576279,,0.80000000000000004,-0.059452258050441742,,0.80000000000000004,0.020410418510437012,
1.605,0.0050244731828570366,,0.80249999999999999,-0.063779555261135101,,0.80249999999999999,0.020698904991149902,
1.6100000000000001,-0.0034618377685546875,,0.80500000000000005,-0.066063404083251953,,0.80500000000000005,0.021396081894636154,
1.615,-0.009447932243347168,,0.8075,-0.068275138735771179,,0.8075,0.022309621796011925,
1.6200000000000001,-0.017790000885725021,,0.81000000000000005,-0.070342622697353363,,0.81000000000000005,0.024088621139526367,
1.625,-0.022694271057844162,,0.8125,-0.074068903923034668,,0.8125,0.024521350860595703,
1.6299999999999999,-0.030218958854675293,,0.81499999999999995,-0.075727701187133789,,0.81499999999999995,0.024401148781180382,
1.635,-0.03675798699259758,,0.8175,-0.077242255210876465,,0.8175,0.023655891418457031,
1.6399999999999999,-0.050869785249233246,,0.81999999999999995,-0.079718433320522308,,0.81999999999999995,0.020602744072675705,
1.645,-0.063274703919887543,,0.82250000000000001,-0.080607935786247253,,0.82250000000000001,0.018607378005981445,
1.6499999999999999,-0.084502503275871277,,0.82499999999999996,-0.081257030367851257,,0.82499999999999996,0.016587972640991211,
1.655,-0.098974905908107758,,0.82750000000000001,-0.081641674041748047,,0.82750000000000001,0.014784932136535645,
1.6599999999999999,-0.11960168927907944,,0.82999999999999996,-0.08171379566192627,,0.82999999999999996,0.012621283531188965,
1.665,-0.13277590274810791,,0.83250000000000002,-0.081136822700500488,,0.83250000000000002,0.01247704029083252,
1.6699999999999999,-0.15306612849235535,,0.83499999999999996,-0.080487728118896484,,0.83499999999999996,0.012957851402461529,
1.675,-0.1677548885345459,,0.83750000000000002,-0.079646311700344086,,0.83750000000000002,0.013967554084956646,
1.6799999999999999,-0.19172331690788269,,0.83999999999999997,-0.077410541474819183,,0.83999999999999997,0.017068784683942795,
1.6850000000000001,-0.20826320350170135,,0.84250000000000003,-0.076136395335197449,,0.84250000000000003,0.018775662407279015,
1.6899999999999999,-0.23194313049316406,,0.84499999999999997,-0.074814163148403168,,0.84499999999999997,0.020338296890258789,
1.6950000000000001,-0.24586260318756104,,0.84750000000000003,-0.073588095605373383,,0.84750000000000003,0.021660527214407921,
1.7,-0.26225826144218445,,0.84999999999999998,-0.071712933480739594,,0.84999999999999998,0.022982757538557053,
1.7050000000000001,-0.26944637298583984,,0.85250000000000004,-0.071232125163078308,,0.85250000000000004,0.022862553596496582,
1.71,-0.27343711256980896,,0.85499999999999998,-0.071160003542900085,,0.85499999999999998,0.022237500175833702,
1.7150000000000001,-0.2708888053894043,,0.85750000000000004,-0.071472525596618652,,0.85750000000000004,0.021059513092041016,
1.72,-0.25802713632583618,,0.85999999999999999,-0.073059201240539551,,0.85999999999999999,0.01738131046295166,
1.7250000000000001,-0.24285754561424255,,0.86250000000000004,-0.074116989970207214,,0.86250000000000004,0.015049378387629986,
1.73,-0.21021048724651337,,0.86499999999999999,-0.075150728225708008,,0.86499999999999999,0.012597243301570415,
1.7350000000000001,-0.18280427157878876,,0.86750000000000005,-0.076040230691432953,,0.86750000000000005,0.010169148445129395,
1.74,-0.13635794818401337,,0.87,-0.076665282249450684,,0.87,0.0061062974855303764,
1.7450000000000001,-0.10404746234416962,,0.87250000000000005,-0.077025890350341797,,0.87250000000000005,0.004832148551940918,
1.75,-0.057240527123212814,,0.875,-0.076881647109985352,,0.875,0.0042551755905151367,
1.7549999999999999,-0.02877652645111084,,0.87749999999999995,-0.076641246676445007,,0.87749999999999995,0.0043753786012530327,
1.76,0.0079333782196044922,,0.88,-0.076617203652858734,,0.88,0.0065871081314980984,
1.7649999999999999,0.027814906090497971,,0.88249999999999995,-0.077122054994106293,,0.88249999999999995,0.0083661079406738281,
1.77,0.050292812287807465,,0.88500000000000001,-0.078059636056423187,,0.88500000000000001,0.01028935145586729,
1.7749999999999999,0.060606203973293304,,0.88749999999999996,-0.079453989863395691,,0.88749999999999996,0.012116432189941406,
1.78,0.07060706615447998,,0.89000000000000001,-0.083036027848720551,,0.89000000000000001,0.01461664866656065,
1.7849999999999999,0.075030528008937836,,0.89249999999999996,-0.084815025329589844,,0.89249999999999996,0.015001296997070312,
1.79,0.080559849739074707,,0.89500000000000002,-0.08628150075674057,,0.89500000000000002,0.014784932136535645,
1.7949999999999999,0.084189973771572113,,0.89749999999999996,-0.087243124842643738,,0.89749999999999996,0.014015635475516319,
1.8,0.089310608804225922,,0.90000000000000002,-0.087195038795471191,,0.90000000000000002,0.01139521598815918,
1.8049999999999999,0.091906987130641937,,0.90249999999999997,-0.086209379136562347,,0.90249999999999997,0.0098806619644165039,
1.8100000000000001,0.093589827418327332,,0.90500000000000003,-0.084766946732997894,,0.90500000000000003,0.0084622707217931747,
1.8149999999999999,0.093133054673671722,,0.90749999999999997,-0.083036027848720551,,0.90749999999999997,0.0072842836380004883,
1.8200000000000001,0.090704962611198425,,0.91000000000000003,-0.07950206845998764,,0.91000000000000003,0.0059380135498940945,
1.825,0.088589392602443695,,0.91249999999999998,-0.077963471412658691,,0.91249999999999998,0.0058178110048174858,
1.8300000000000001,0.085728570818901062,,0.91500000000000004,-0.076689325273036957,,0.91500000000000004,0.0059620542451739311,
1.835,0.084310173988342285,,0.91749999999999998,-0.07563154399394989,,0.91749999999999998,0.0063226623460650444,
1.8400000000000001,0.082963906228542328,,0.92000000000000004,-0.073972746729850769,,0.92000000000000004,0.0070679187774658203,
1.845,0.082435011863708496,,0.92249999999999999,-0.073251530528068542,,0.92249999999999999,0.0072362027131021023,
1.8500000000000001,0.081858038902282715,,0.92500000000000004,-0.072530314326286316,,0.92500000000000004,0.0071160001680254936,
1.855,0.081401273608207703,,0.92749999999999999,-0.071881219744682312,,0.92749999999999999,0.006659229751676321,
1.8600000000000001,0.080535814166069031,,0.93000000000000005,-0.071039795875549316,,0.93000000000000005,0.004784067627042532,
1.865,0.079910755157470703,,0.9325,-0.07106383889913559,,0.9325,0.0035820405464619398,
1.8700000000000001,0.078997217118740082,,0.93500000000000005,-0.071520611643791199,,0.93500000000000005,0.0023559730034321547,
1.875,0.077747106552124023,,0.9375,-0.072506271302700043,,0.9375,0.0012981891632080078,
1.8799999999999999,0.076352760195732117,,0.93999999999999995,-0.074020825326442719,,0.93999999999999995,0.00021636486053466797,
1.885,0.073035165667533875,,0.9425,-0.078492365777492523,,0.9425,0.000312527030473575,
1.8899999999999999,0.06998201459646225,,0.94499999999999995,-0.081232987344264984,,0.94499999999999995,0.00079333782196044922,
1.895,0.0646209716796875,,0.94750000000000001,-0.08411785215139389,,0.94750000000000001,0.0015385946026071906,
1.8999999999999999,0.061159133911132812,,0.94999999999999996,-0.089502930641174316,,0.94999999999999996,0.0032454729080200195,
1.905,0.057144366204738617,,0.95250000000000001,-0.09164254367351532,,0.95250000000000001,0.0037984054069966078,
1.9099999999999999,0.055629812180995941,,0.95499999999999996,-0.093205176293849945,,0.95499999999999996,0.0039186081849038601,
1.915,0.055076878517866135,,0.95750000000000002,-0.09409467875957489,,0.95750000000000002,0.0035339593887329102,
1.9199999999999999,0.055509608238935471,,0.95999999999999996,-0.09368598461151123,,0.95999999999999996,0.00098566222004592419,
1.925,0.056230824440717697,,0.96250000000000002,-0.092459917068481445,,0.96250000000000002,-0.0010818243026733398,
1.9299999999999999,0.055966377258300781,,0.96499999999999997,-0.090777084231376648,,0.96499999999999997,-0.0035339593887329102,
1.9350000000000001,0.053369998931884766,,0.96750000000000003,-0.088757678866386414,,0.96750000000000003,-0.0062745809555053711,
1.9399999999999999,0.050268769264221191,,0.96999999999999997,-0.084646746516227722,,0.96999999999999997,-0.011827945709228516,
1.9450000000000001,0.044979851692914963,,0.97250000000000003,-0.082939863204956055,,0.97250000000000003,-0.01430412195622921,
1.95,0.042335391044616699,,0.97499999999999998,-0.081617638468742371,,0.97499999999999998,-0.016395648941397667,
1.9550000000000001,0.04154205322265625,,0.97750000000000004,-0.080776214599609375,,0.97750000000000004,-0.017934244126081467,
1.96,0.043104689568281174,,0.97999999999999998,-0.080559849739074707,,0.97999999999999998,-0.019040107727050781,
1.9650000000000001,0.046782892197370529,,0.98250000000000004,-0.081136822700500488,,0.98250000000000004,-0.018631419166922569,
1.97,0.048369567841291428,,0.98499999999999999,-0.082026325166225433,,0.98499999999999999,-0.017693838104605675,
1.9750000000000001,0.047456026077270508,,0.98750000000000004,-0.083204314112663269,,0.98750000000000004,-0.016443729400634766,
1.98,0.04473944753408432,,0.98999999999999999,-0.086113214492797852,,0.98999999999999999,-0.014183918945491314,
1.9850000000000001,0.039570730179548264,,0.99250000000000005,-0.087772011756896973,,0.99250000000000005,-0.013871392235159874,
1.99,0.03692626953125,,0.995,-0.08952697366476059,,0.995,-0.01461664866656065,
1.9950000000000001,0.035435758531093597,,0.99750000000000005,-0.091354057192802429,,0.99750000000000005,-0.016660094261169434,
2,0.035820405930280685,59.553352355957031,1,-0.095224581658840179,162.16215515136719,1,-0.025386810302734375,133.33334350585938
2.0049999999999999,0.037118595093488693,,1.0024999999999999,-0.097195908427238464,,1.0024999999999999,-0.031949877738952637,
2.0099999999999998,0.037767689675092697,,1.0049999999999999,-0.09909510612487793,,1.0049999999999999,-0.039666891098022461,
2.0150000000000001,0.03812829777598381,,1.0075000000000001,-0.10082602500915527,,1.0075000000000001,-0.048057042062282562,
2.02,0.038248501718044281,,1.01,-0.10335028171539307,,1.01,-0.064524814486503601,
2.0249999999999999,0.038488905876874924,,1.0125,-0.10390321910381317,,1.0125,-0.07135232537984848,
2.0299999999999998,0.038536988198757172,,1.0149999999999999,-0.1038791760802269,,1.0149999999999999,-0.076497003436088562,
2.0350000000000001,0.03783981129527092,,1.0175000000000001,-0.10323008149862289,,1.0175000000000001,-0.079574190080165863,
2.04,0.036685865372419357,,1.02,-0.10032117366790771,,1.02,-0.078925095498561859,
2.0449999999999999,0.034281812608242035,,1.0225,-0.098373889923095703,,1.0225,-0.075367093086242676,
2.0499999999999998,0.032574933022260666,,1.0249999999999999,-0.096426606178283691,,1.0249999999999999,-0.070078179240226746,
2.0550000000000002,0.030291080474853516,,1.0275000000000001,-0.094791851937770844,,1.0275000000000001,-0.063491068780422211,
2.0600000000000001,0.028968852013349533,,1.03,-0.093517705798149109,,1.03,-0.048177242279052734,
2.0649999999999999,0.027237933129072189,,1.0325,-0.094359122216701508,,1.0325,-0.04029194638133049,
2.0699999999999998,0.026300352066755295,,1.0349999999999999,-0.096378527581691742,,1.0349999999999999,-0.032671093940734863,
2.0750000000000002,0.025627216324210167,,1.0375000000000001,-0.099599957466125488,,1.0375000000000001,-0.025458931922912598,
2.0800000000000001,0.025386810302734375,,1.04,-0.10926425457000732,,1.04,-0.012645324692130089,
2.085,0.026059946045279503,,1.0425,-0.11532247066497803,,1.0425,-0.0071160001680254936,
2.0899999999999999,0.026684999465942383,,1.0449999999999999,-0.12188553810119629,,1.0449999999999999,-0.0022117297630757093,
2.0950000000000002,0.027310054749250412,,1.0475000000000001,-0.12864093482494354,,1.0475000000000001,0.0019953649025410414,
2.1000000000000001,0.027286013588309288,,1.05,-0.14150261878967285,,1.05,0.0079814596101641655,
2.105,0.026540756225585938,,1.0525,-0.14700791239738464,,1.0525,0.0094719734042882919,
2.1099999999999999,0.025651257485151291,,1.0549999999999999,-0.1515275239944458,,1.0549999999999999,0.0097604598850011826,
2.1150000000000002,0.023800134658813477,,1.0575000000000001,-0.15486916899681091,,1.0575000000000001,0.008822878822684288,
2.1200000000000001,0.022141337394714355,,1.0600000000000001,-0.15734533965587616,,1.0600000000000001,0.0032935540657490492,
2.125,0.019088190048933029,,1.0625,-0.15640775859355927,,1.0625,-0.00084141892148181796,
2.1299999999999999,0.016852419823408127,,1.0649999999999999,-0.15402774512767792,,1.0649999999999999,-0.0052889189682900906,
2.1349999999999998,0.013775229454040527,,1.0674999999999999,-0.15039762854576111,,1.0674999999999999,-0.0094238920137286186,
2.1400000000000001,0.012356838211417198,,1.0700000000000001,-0.1400601863861084,,1.0700000000000001,-0.013150176033377647,
2.145,0.011467337608337402,,1.0725,-0.13383369147777557,,1.0725,-0.010866324417293072,
2.1499999999999999,0.011178851127624512,,1.075,-0.12727062404155731,,1.075,-0.004567702766507864,
2.1549999999999998,0.009351770393550396,,1.0774999999999999,-0.1205633133649826,,1.0774999999999999,0.0064428648911416531,
2.1600000000000001,0.0059620542451739311,,1.0800000000000001,-0.10743717849254608,,1.0800000000000001,0.04365762323141098,
2.165,-0.0036782026290893555,,1.0825,-0.10121067613363266,,1.0825,0.069212719798088074,
2.1699999999999999,-0.012669364921748638,,1.085,-0.095272660255432129,,1.085,0.098085403442382812,
2.1749999999999998,-0.027165811508893967,,1.0874999999999999,-0.089695259928703308,,1.0874999999999999,0.12847265601158142,
2.1800000000000002,-0.034954946488142014,,1.0900000000000001,-0.084526538848876953,,1.0900000000000001,0.18424670398235321,
2.1850000000000001,-0.039883255958557129,,1.0925,-0.075751744210720062,,1.0925,0.20367145538330078,
2.1899999999999999,-0.037407081574201584,,1.095,-0.072506271302700043,,1.095,0.21304726600646973,
2.1949999999999998,-0.025603175163269043,,1.0974999999999999,-0.070342622697353363,,1.0974999999999999,0.20900845527648926,
2.2000000000000002,-0.013991594314575195,,1.1000000000000001,-0.070294544100761414,,1.1000000000000001,0.14833013713359833,
2.2050000000000001,0.0050725541077554226,,1.1025,-0.072674557566642761,,1.1025,0.08702675998210907,
2.21,0.016227364540100098,,1.105,-0.076545082032680511,,1.105,0.0035820405464619398,
2.2149999999999999,0.026372473686933517,,1.1074999999999999,-0.081521473824977875,,1.1074999999999999,-0.1015472412109375,
2.2200000000000002,0.027021568268537521,,1.1100000000000001,-0.086930595338344574,,1.1100000000000001,-0.36659419536590576,
2.2250000000000001,0.019400715827941895,,1.1125,-0.094960138201713562,,1.1125,-0.5169677734375,
2.23,0.012260675430297852,,1.115,-0.095200538635253906,,1.115,-0.67010605335235596,
2.2349999999999999,0.0107701625674963,,1.1174999999999999,-0.091305971145629883,,1.1174999999999999,-0.81759476661682129,
2.2400000000000002,0.024545392021536827,,1.1200000000000001,-0.06786644458770752,,1.1200000000000001,-1.0593464374542236,
2.2450000000000001,0.075944066047668457,,1.1225000000000001,-0.047792594879865646,,1.1225000000000001,-1.1366608142852783,
2.25,0.12633304297924042,,1.125,-0.022886594757437706,,1.125,-1.1760392189025879,
2.2549999999999999,0.19629101455211639,,1.1274999999999999,0.0055533647537231445,,1.1274999999999999,-1.173755407333374,
2.2599999999999998,0.21040281653404236,,1.1299999999999999,0.064308449625968933,,1.1299999999999999,-1.0444893836975098,
2.2650000000000001,0.1306363046169281,,1.1325000000000001,0.088974043726921082,,1.1325000000000001,-0.92548871040344238,
2.27,-0.0077170133590698242,,1.135,0.1061149463057518,,1.135,-0.78023576736450195,
2.2749999999999999,-0.32659074664115906,,1.1375,0.11224528402090073,,1.1375,-0.61858713626861572,
2.2799999999999998,-0.57108306884765625,,1.1399999999999999,0.078203879296779633,,1.1399999999999999,-0.45126497745513916,
2.2850000000000001,-0.87461888790130615,,1.1425000000000001,0.032478772103786469,,1.1425000000000001,-0.14054100215435028,
2.29,-0.97126185894012451,,1.145,-0.034786663949489594,,1.145,-0.013606945984065533,
2.2949999999999999,-0.90096735954284668,,1.1475,-0.12404918670654297,,1.1475,0.087267160415649414,
2.2999999999999998,-0.72441363334655762,,1.1499999999999999,-0.36269962787628174,,1.1499999999999999,0.20581106841564178,
2.3050000000000002,-0.35959839820861816,,1.1525000000000001,-0.50485134124755859,,1.1525000000000001,0.22713503241539001,
2.3100000000000001,-0.12171725928783417,,1.155,-0.65450370311737061,,1.155,0.22864958643913269,
2.3149999999999999,0.13094882667064667,,1.1575,-0.80389165878295898,,1.1575,0.21564364433288574,
2.3199999999999998,0.20927290618419647,,1.1599999999999999,-1.0665345191955566,,1.1599999999999999,0.16741833090782166,
2.3250000000000002,0.21569173038005829,,1.1625000000000001,-1.1619274616241455,,1.1625000000000001,0.14109393954277039,
2.3300000000000001,0.1784769743680954,,1.165,-1.2230625152587891,,1.165,0.11734187602996826,
2.335,0.11229336261749268,,1.1675,-1.2446027994155884,,1.1675,0.097748838365077972,
2.3399999999999999,0.077915392816066742,,1.1699999999999999,-1.1619514226913452,,1.1699999999999999,0.072121620178222656,
2.3450000000000002,0.0461578369140625,,1.1725000000000001,-1.0622793436050415,,1.1725000000000001,0.064861379563808441,
2.3500000000000001,0.034161608666181564,,1.175,-0.93183541297912598,,1.175,0.059933066368103027,
2.355,0.022574067115783691,,1.1775,-0.77980303764343262,,1.1775,0.056326985359191895,
2.3599999999999999,0.017068784683942795,,1.1799999999999999,-0.45338055491447449,,1.1799999999999999,0.049908161163330078,
2.3650000000000002,0.011323094367980957,,1.1825000000000001,-0.30002593994140625,,1.1825000000000001,0.046302080154418945,
2.3700000000000001,0.0086786355823278427,,1.1850000000000001,-0.16503831744194031,,1.1850000000000001,0.042311351746320724,
2.375,0.0050965948030352592,,1.1875,-0.054379701614379883,,1.1875,0.038080215454101562,
2.3799999999999999,0.0021876893006265163,,1.1899999999999999,0.083901487290859222,,1.1899999999999999,0.029714107513427734,
2.3849999999999998,-0.0034618377685546875,,1.1924999999999999,0.11332710832357407,,1.1924999999999999,0.025867622345685959,
2.3900000000000001,-0.0080295410007238388,,1.1950000000000001,0.12106816470623016,,1.1950000000000001,0.022405784577131271,
2.395,-0.015794634819030762,,1.1975,0.11231740564107895,,1.1975,0.019232433289289474,
2.3999999999999999,-0.021492242813110352,,1.2,0.067385636270046234,,1.2,0.013414621353149414,
2.4049999999999998,-0.030723810195922852,,1.2024999999999999,0.040892958641052246,,1.2024999999999999,0.010457634925842285,
2.4100000000000001,-0.037238799035549164,,1.2050000000000001,0.016323527321219444,,1.2050000000000001,0.0073083243332803249,
2.415,-0.047119460999965668,,1.2075,-0.0043753786012530327,,1.2075,0.0039186081849038601,
2.4199999999999999,-0.053418081253767014,,1.21,-0.02045850083231926,,1.21,-0.0035580000840127468,
2.4249999999999998,-0.062144797295331955,,1.2124999999999999,-0.040099620819091797,,1.2124999999999999,-0.0073564052581787109,
2.4300000000000002,-0.067505836486816406,,1.2150000000000001,-0.045460663735866547,,1.2150000000000001,-0.010986527428030968,
2.4350000000000001,-0.075367093086242676,,1.2175,-0.049138866364955902,,1.2175,-0.014159878715872765,
2.4399999999999999,-0.08092045783996582,,1.22,-0.054499905556440353,,1.22,-0.018415054306387901,
2.4449999999999998,-0.090608797967433929,,1.2224999999999999,-0.056903958320617676,,1.2224999999999999,-0.019208392128348351,
2.4500000000000002,-0.098542176187038422,,1.2250000000000001,-0.059259932488203049,,1.2250000000000001,-0.019112229347229004,
2.4550000000000001,-0.11371175944805145,,1.2275,-0.061543785035610199,,1.2275,-0.018246769905090332,
2.46,-0.12647728621959686,,1.23,-0.065630674362182617,,1.23,-0.015458067879080772,
2.4649999999999999,-0.14948408305644989,,1.2324999999999999,-0.067553922533988953,,1.2324999999999999,-0.014352202415466309,
2.4700000000000002,-0.1667211502790451,,1.2350000000000001,-0.069573327898979187,,1.2350000000000001,-0.014015635475516319,
2.4750000000000001,-0.19340614974498749,,1.2375,-0.071881219744682312,,1.2375,-0.014833013527095318,
2.48,-0.21057109534740448,,1.24,-0.077771149575710297,,1.24,-0.020819108933210373,
2.4849999999999999,-0.23427507281303406,,1.2424999999999999,-0.081425309181213379,,1.2424999999999999,-0.025963783264160156,
2.4900000000000002,-0.24881958961486816,,1.2450000000000001,-0.085367962718009949,,1.2450000000000001,-0.032190285623073578,
2.4950000000000001,-0.26923000812530518,,1.2475000000000001,-0.089382730424404144,,1.2475000000000001,-0.038969717919826508,
2.5,-0.28180322051048279,,1.25,-0.096570849418640137,,1.25,-0.051759283989667892,
2.5049999999999999,-0.29742956161499023,,1.2524999999999999,-0.099359557032585144,,1.2524999999999999,-0.056543350219726562,
2.5099999999999998,-0.3042570948600769,,1.2549999999999999,-0.10147511959075928,,1.2549999999999999,-0.05966862291097641,
2.5150000000000001,-0.30675730109214783,,1.2575000000000001,-0.10298967361450195,,1.2575000000000001,-0.061014890670776367,
2.52,-0.30247807502746582,,1.26,-0.10496100038290024,,1.26,-0.059163771569728851,
2.5249999999999999,-0.28677961230278015,,1.2625,-0.10594666004180908,,1.2625,-0.057048201560974121,
2.5299999999999998,-0.27026376128196716,,1.2649999999999999,-0.10719677060842514,,1.2649999999999999,-0.055124960839748383,
2.5350000000000001,-0.23703972995281219,,1.2675000000000001,-0.10892768949270248,,1.2675000000000001,-0.054163336753845215,
2.54,-0.20982584357261658,,1.27,-0.11380791664123535,,1.27,-0.05755305290222168,
2.5449999999999999,-0.16330739855766296,,1.2725,-0.11678894609212875,,1.2725,-0.062505409121513367,
2.5499999999999998,-0.13027569651603699,,1.2749999999999999,-0.11986613273620605,,1.2749999999999999,-0.069549284875392914,
2.5550000000000002,-0.081641674041748047,,1.2775000000000001,-0.12284716218709946,,1.2775000000000001,-0.078251957893371582,
2.5600000000000001,-0.052167974412441254,,1.28,-0.12808799743652344,,1.28,-0.098181568086147308,
2.5649999999999999,-0.015482108108699322,,1.2825,-0.13022761046886444,,1.2825,-0.10806223005056381,
2.5699999999999998,0.0031493108253926039,,1.2849999999999999,-0.13212680816650391,,1.2849999999999999,-0.11707743257284164,
2.5750000000000002,0.02307891845703125,,1.2875000000000001,-0.1339058130979538,,1.2875000000000001,-0.12481848895549774,
2.5800000000000001,0.032574933022260666,,1.29,-0.13748785853385925,,1.29,-0.13575693964958191,
2.585,0.044523082673549652,,1.2925,-0.13945917785167694,,1.2925,-0.1390264481306076,
2.5899999999999999,0.052360296249389648,,1.2949999999999999,-0.14157474040985107,,1.2949999999999999,-0.14111797511577606,
2.5950000000000002,0.063851676881313324,,1.2975000000000001,-0.14381051063537598,,1.2975000000000001,-0.14241616427898407,
2.6000000000000001,0.06998201459646225,,1.3,-0.148354172706604,,1.3,-0.14407496154308319,
2.605,0.074020825326442719,,1.3025,-0.15063802897930145,,1.3025,-0.1452769935131073,
2.6099999999999999,0.072410106658935547,,1.3049999999999999,-0.15296995639801025,,1.3049999999999999,-0.14724831283092499,
2.6150000000000002,0.065221987664699554,,1.3075000000000001,-0.15544614195823669,,1.3075000000000001,-0.15034954249858856,
2.6200000000000001,0.059596501290798187,,1.3100000000000001,-0.16123990714550018,,1.3100000000000001,-0.16092738509178162,
2.625,0.054475866258144379,,1.3125,-0.16477386653423309,,1.3125,-0.16866843402385712,
2.6299999999999999,0.054740309715270996,,1.3149999999999999,-0.16876459121704102,,1.3149999999999999,-0.17804424464702606,
2.6349999999999998,0.060293674468994141,,1.3174999999999999,-0.17323613166809082,,1.3174999999999999,-0.18879036605358124,
2.6400000000000001,0.06565471738576889,,1.3200000000000001,-0.18321296572685242,,1.3200000000000001,-0.21299919486045837,
2.645,0.072554349899291992,,1.3225,-0.18847784399986267,,1.3225,-0.22547623515129089,
2.6499999999999999,0.074790120124816895,,1.325,-0.19381484389305115,,1.325,-0.23747245967388153,
2.6549999999999998,0.074092946946620941,,1.3274999999999999,-0.19915184378623962,,1.3274999999999999,-0.24853110313415527,
2.6600000000000001,0.071857176721096039,,1.3300000000000001,-0.20970563590526581,,1.3300000000000001,-0.26639324426651001,
2.665,0.068299174308776855,,1.3325,-0.21499454975128174,,1.3325,-0.27290821075439453,
2.6699999999999999,0.06678462028503418,,1.335,-0.22037963569164276,,1.335,-0.27790865302085876,
2.6749999999999998,0.065871082246303558,,1.3374999999999999,-0.22593300044536591,,1.3374999999999999,-0.28165897727012634,
2.6800000000000002,0.065366230905056,,1.3400000000000001,-0.23764073848724365,,1.3400000000000001,-0.2867315411567688,
2.6850000000000001,0.063178539276123047,,1.3425,-0.24381916224956512,,1.3425,-0.28877496719360352,
2.6899999999999999,0.060437917709350586,,1.345,-0.25016587972640991,,1.345,-0.29086649417877197,
2.6949999999999998,0.055317282676696777,,1.3474999999999999,-0.25672894716262817,,1.3474999999999999,-0.29312631487846375,
2.7000000000000002,0.052167974412441254,,1.3500000000000001,-0.27038395404815674,,1.3500000000000001,-0.29771804809570312,
2.7050000000000001,0.048778258264064789,,1.3525,-0.277596116065979,,1.3525,-0.29949706792831421,
2.71,0.047119460999965668,,1.355,-0.2851448655128479,,1.355,-0.30041059851646423,
2.7149999999999999,0.044114392250776291,,1.3574999999999999,-0.29312631487846375,,1.3574999999999999,-0.29992979764938354,
2.7200000000000002,0.04120548814535141,,1.3600000000000001,-0.31072399020195007,,1.3600000000000001,-0.29329460859298706,
2.7250000000000001,0.035916566848754883,,1.3625,-0.32038828730583191,,1.3625,-0.28656324744224548,
2.73,0.032767258584499359,,1.365,-0.33053338527679443,,1.365,-0.27745187282562256,
2.7349999999999999,0.030170878395438194,,1.3674999999999999,-0.34094294905662537,,1.3674999999999999,-0.2661287784576416,
2.7400000000000002,0.030098756775259972,,1.3700000000000001,-0.36159378290176392,,1.3700000000000001,-0.23807346820831299,
2.7450000000000001,0.031108459457755089,,1.3725000000000001,-0.37111383676528931,,1.3725000000000001,-0.22225479781627655,
2.75,0.03122866153717041,,1.375,-0.37967225909233093,,1.375,-0.20593127608299255,
2.7549999999999999,0.028944810852408409,,1.3774999999999999,-0.38695654273033142,,1.3774999999999999,-0.18960773944854736,
2.7599999999999998,0.02598782442510128,,1.3799999999999999,-0.39717376232147217,,1.3799999999999999,-0.15864352881908417,
2.7650000000000001,0.021588405594229698,,1.3825000000000001,-0.40005862712860107,,1.3825000000000001,-0.14455577731132507,
2.77,0.020194053649902344,,1.385,-0.40162128210067749,,1.385,-0.131573885679245,
2.7749999999999999,0.021732648834586143,,1.3875,-0.40207803249359131,,1.3875,-0.11969785392284393,
2.7799999999999998,0.024833878502249718,,1.3899999999999999,-0.40051540732383728,,1.3899999999999999,-0.098614297807216644,
2.7850000000000001,0.030435323715209961,,1.3925000000000001,-0.39876043796539307,,1.3925000000000001,-0.088974043726921082,
2.79,0.033416353166103363,,1.395,-0.39642852544784546,,1.395,-0.079574190080165863,
2.7949999999999999,0.035387676209211349,,1.3975,-0.39344748854637146,,1.3975,-0.070222422480583191,
2.7999999999999998,0.035075150430202484,,1.3999999999999999,-0.38476884365081787,,1.3999999999999999,-0.051038067787885666,
2.8050000000000002,0.032935541123151779,,1.4025000000000001,-0.37866255640983582,,1.4025000000000001,-0.041109323501586914,
2.8100000000000001,0.030916135758161545,,1.405,-0.37113785743713379,,1.405,-0.031084418296813965,
2.8149999999999999,0.027622580528259277,,1.4075,-0.36205053329467773,,1.4075,-0.021107595413923264,
2.8199999999999998,0.025579135864973068,,1.4099999999999999,-0.33916395902633667,,1.4099999999999999,-0.0021876893006265163,
2.8250000000000002,0.023391446098685265,,1.4125000000000001,-0.32555699348449707,,1.4125000000000001,0.0062265000306069851,
2.8300000000000001,0.022814473137259483,,1.415,-0.31077206134796143,,1.415,0.013655027374625206,
2.835,0.023391446098685265,,1.4175,-0.2950255274772644,,1.4175,0.019881527870893478,
2.8399999999999999,0.024377107620239258,,1.4199999999999999,-0.26163321733474731,,1.4199999999999999,0.028439959511160851,
2.8450000000000002,0.025891661643981934,,1.4225000000000001,-0.2444922924041748,,1.4225000000000001,0.030795931816101074,
2.8500000000000001,0.026348432525992393,,1.425,-0.22730331122875214,,1.425,0.032070081681013107,
2.855,0.025843581184744835,,1.4275,-0.21028260886669159,,1.4275,0.032454729080200195,
2.8599999999999999,0.024809837341308594,,1.4299999999999999,-0.17737111449241638,,1.4299999999999999,0.03197392076253891,
2.8650000000000002,0.022862553596496582,,1.4325000000000001,-0.16179284453392029,,1.4325000000000001,0.031733512878417969,
2.8700000000000001,0.021612446755170822,,1.4350000000000001,-0.14703194797039032,,1.4350000000000001,0.031925838440656662,
2.875,0.020145973190665245,,1.4375,-0.13323268294334412,,1.4375,0.032719176262617111,
2.8799999999999999,0.019496878609061241,,1.4399999999999999,-0.10907193273305893,,1.4399999999999999,0.036373339593410492,
2.8849999999999998,0.019040107727050781,,1.4424999999999999,-0.098854705691337585,,1.4424999999999999,0.039017796516418457,
2.8900000000000001,0.018943946808576584,,1.4450000000000001,-0.089911624789237976,,1.4450000000000001,0.041878622025251389,
2.895,0.018799703568220139,,1.4475,-0.082122489809989929,,1.4475,0.044595204293727875,
2.8999999999999999,0.018487175926566124,,1.45,-0.069380998611450195,,1.45,0.048417650163173676,
2.9049999999999998,0.017285149544477463,,1.4524999999999999,-0.064019963145256042,,1.4524999999999999,0.049090784043073654,
2.9100000000000001,0.015866756439208984,,1.4550000000000001,-0.059043567627668381,,1.4550000000000001,0.048850379884243011,
2.915,0.013029973022639751,,1.4575,-0.054235458374023438,,1.4575,0.047888755798339844,
2.9199999999999999,0.01105864904820919,,1.46,-0.044883690774440765,,1.46,0.044835608452558517,
2.9249999999999998,0.00891904067248106,,1.4624999999999999,-0.040364068001508713,,1.4624999999999999,0.043489336967468262,
2.9300000000000002,0.0084863109514117241,,1.4650000000000001,-0.036060810089111328,,1.4650000000000001,0.04274408146739006,
2.9350000000000001,0.0096883382648229599,,1.4675,-0.032118164002895355,,1.4675,0.042816203087568283,
2.9399999999999999,0.011443297378718853,,1.47,-0.026035904884338379,,1.47,0.045652985572814941,
2.9449999999999998,0.014592608436942101,,1.4724999999999999,-0.024064581841230392,,1.4724999999999999,0.048129163682460785,
2.9500000000000002,0.016107162460684776,,1.4750000000000001,-0.022862553596496582,,1.4750000000000001,0.050941906869411469,
2.9550000000000001,0.016035040840506554,,1.4775,-0.022309621796011925,,1.4775,0.053682528436183929,
2.96,0.013895432464778423,,1.48,-0.022574067115783691,,1.48,0.057529013603925705,
2.9649999999999999,0.0078131761401891708,,1.4824999999999999,-0.022982757538557053,,1.4824999999999999,0.058105986565351486,
2.9700000000000002,0.0026204190216958523,,1.4850000000000001,-0.023247202858328819,,1.4850000000000001,0.057721339166164398,
2.9750000000000001,-0.0046879053115844727,,1.4875,-0.023223161697387695,,1.4875,0.05647122859954834,
2.98,-0.0080295410007238388,,1.49,-0.021780729293823242,,1.49,0.052336256951093674,
2.9849999999999999,-0.0096162166446447372,,1.4924999999999999,-0.020338296890258789,,1.4924999999999999,0.050076447427272797,
2.9900000000000002,-0.0086786355823278427,,1.4950000000000001,-0.018511217087507248,,1.4950000000000001,0.048129163682460785,
2.9950000000000001,-0.0064669055864214897,,1.4975000000000001,-0.016515851020812988,,1.4975000000000001,0.046638648957014084,
3,-0.0062024593353271484,62.111801147460938,1.5,-0.012861689552664757,,1.5,0.045268338173627853,
,,,1.5024999999999999,-0.011731783859431744,,1.5024999999999999,0.045148134231567383,
,,,1.5049999999999999,-0.011323094367980957,,1.5049999999999999,0.045124094933271408,
,,,1.5075000000000001,-0.011731783859431744,,1.5075000000000001,0.044955812394618988,
,,,1.51,-0.014881094917654991,,1.51,0.043513379991054535,
,,,1.5125,-0.017261108383536339,,1.5125,0.042046904563903809,
,,,1.5149999999999999,-0.019761323928833008,,1.5149999999999999,0.04012366384267807,
,,,1.5175000000000001,-0.022093256935477257,,1.5175000000000001,0.037887893617153168,
,,,1.52,-0.024954080581665039,,1.52,0.032935541123151779,
,,,1.5225,-0.025098323822021484,,1.5225,0.030483406037092209,
,,,1.5249999999999999,-0.024304986000061035,,1.5249999999999999,0.028127431869506836,
,,,1.5275000000000001,-0.022742351517081261,,1.5275000000000001,0.025891661643981934,
,,,1.53,-0.018150608986616135,,1.53,0.021852850914001465,
,,,1.5325,-0.015794634819030762,,1.5325,0.020049810409545898,
,,,1.5349999999999999,-0.013751189224421978,,1.5349999999999999,0.018487175926566124,
,,,1.5375000000000001,-0.012308756820857525,,1.5375000000000001,0.017261108383536339,
,,,1.54,-0.01168370246887207,,1.54,0.016419690102338791,
,,,1.5425,-0.012525121681392193,,1.5425,0.017020702362060547,
,,,1.5449999999999999,-0.013967554084956646,,1.5449999999999999,0.018318891525268555,
,,,1.5475000000000001,-0.015818675979971886,,1.5475000000000001,0.02029021643102169,
,,,1.55,-0.019905567169189453,,1.55,0.02524256706237793,
,,,1.5525,-0.021732648834586143,,1.5525,0.027670662850141525,
,,,1.5549999999999999,-0.023199122399091721,,1.5549999999999999,0.029593905434012413,
,,,1.5575000000000001,-0.024232864379882812,,1.5575000000000001,0.030723810195922852,
,,,1.5600000000000001,-0.025218527764081955,,1.5600000000000001,0.030050676316022873,
,,,1.5625,-0.025338729843497276,,1.5625,0.028295716270804405,
,,,1.5649999999999999,-0.0253627710044384,,1.5649999999999999,0.025819540023803711,
,,,1.5674999999999999,-0.025410851463675499,,1.5674999999999999,0.023006796836853027,
,,,1.5700000000000001,-0.025891661643981934,,1.5700000000000001,0.017934244126081467,
,,,1.5725,-0.026300352066755295,,1.5725,0.016395648941397667,
,,,1.575,-0.026757121086120605,,1.575,0.015890797600150108,
,,,1.5774999999999999,-0.027213891968131065,,1.5774999999999999,0.01646777056157589,
,,,1.5800000000000001,-0.027862986549735069,,1.5800000000000001,0.02045850083231926,
,,,1.5825,-0.028079351410269737,,1.5825,0.023271244019269943,
,,,1.585,-0.028295716270804405,,1.585,0.026108026504516602,
,,,1.5874999999999999,-0.028656324371695518,,1.5874999999999999,0.028584202751517296,
,,,1.5900000000000001,-0.030026635155081749,,1.5900000000000001,0.031180581077933311,
,,,1.5925,-0.031132500618696213,,1.5925,0.030988257378339767,
,,,1.595,-0.032430689781904221,,1.595,0.029762189835309982,
,,,1.5974999999999999,-0.033801000565290451,,1.5974999999999999,0.0276947021484375,
,,,1.6000000000000001,-0.035940609872341156,,1.6000000000000001,0.022021135315299034,
,,,1.6025,-0.036349296569824219,,1.6025,0.019016068428754807,
,,,1.605,-0.036205053329467773,,1.605,0.016323527321219444,
,,,1.6074999999999999,-0.035483837127685547,,1.6074999999999999,0.014183918945491314,
,,,1.6100000000000001,-0.032839380204677582,,1.6100000000000001,0.012284716591238976,
,,,1.6125,-0.031372904777526855,,1.6125,0.012741486541926861,
,,,1.615,-0.030170878395438194,,1.615,0.014135837554931641,
,,,1.6174999999999999,-0.029449662193655968,,1.6174999999999999,0.016371607780456543,
,,,1.6200000000000001,-0.02985835075378418,,1.6200000000000001,0.022790431976318359,
,,,1.6225000000000001,-0.03094017505645752,,1.6225000000000001,0.026468634605407715,
,,,1.625,-0.032382607460021973,,1.625,0.030074715614318848,
,,,1.6274999999999999,-0.033921204507350922,,1.6274999999999999,0.033272109925746918,
,,,1.6299999999999999,-0.036205053329467773,,1.6299999999999999,0.037334959954023361,
,,,1.6325000000000001,-0.03658970445394516,,1.6325000000000001,0.03783981129527092,
,,,1.635,-0.036349296569824219,,1.635,0.037214756011962891,
,,,1.6375,-0.035652123391628265,,1.6375,0.035604041069746017,
,,,1.6399999999999999,-0.033656757324934006,,1.6399999999999999,0.030243000015616417,
,,,1.6425000000000001,-0.033031702041625977,,1.6425000000000001,0.027189850807189941,
,,,1.645,-0.032983623445034027,,1.645,0.024353068321943283,
,,,1.6475,-0.033728878945112228,,1.6475,0.022069215774536133,
,,,1.6499999999999999,-0.037527285516262054,,1.6499999999999999,0.019977688789367676,
,,,1.6525000000000001,-0.040195785462856293,,1.6525000000000001,0.020242135971784592,
,,,1.655,-0.042936407029628754,,1.655,0.021203756332397461,
,,,1.6575,-0.045316420495510101,,1.6575,0.022598108276724815,
,,,1.6599999999999999,-0.047672390937805176,,1.6599999999999999,0.025434892624616623,
,,,1.6625000000000001,-0.047215621918439865,,1.6625000000000001,0.026252269744873047,
,,,1.665,-0.045652985572814941,,1.665,0.026468634605407715,
,,,1.6675,-0.043152771890163422,,1.6675,0.02598782442510128,
,,,1.6699999999999999,-0.036782026290893555,,1.6699999999999999,0.023583769798278809,
,,,1.6725000000000001,-0.03368079662322998,,1.6725000000000001,0.022141337394714355,
,,,1.675,-0.031108459457755089,,1.675,0.02091526985168457,
,,,1.6775,-0.029329460114240646,,1.6775,0.020121932029724121,
,,,1.6799999999999999,-0.028488039970397949,,1.6799999999999999,0.020338296890258789,
,,,1.6825000000000001,-0.029329460114240646,,1.6825000000000001,0.021251838654279709,
,,,1.6850000000000001,-0.030699770897626877,,1.6850000000000001,0.022501945495605469,
,,,1.6875,-0.032358568161725998,,1.6875,0.023800134658813477,
,,,1.6899999999999999,-0.035339593887329102,,1.6899999999999999,0.025771459564566612,
,,,1.6924999999999999,-0.036181014031171799,,1.6924999999999999,0.026156108826398849,
,,,1.6950000000000001,-0.036397378891706467,,1.6950000000000001,0.026156108826398849,
,,,1.6975,-0.036036770790815353,,1.6975,0.025795500725507736,
,,,1.7,-0.033921204507350922,,1.7,0.024593472480773926,
,,,1.7024999999999999,-0.032623015344142914,,1.7024999999999999,0.023944377899169922,
,,,1.7050000000000001,-0.031469069421291351,,1.7050000000000001,0.023343365639448166,
,,,1.7075,-0.030699770897626877,,1.7075,0.022766392678022385,
,,,1.71,-0.030771892517805099,,1.71,0.021420121192932129,
,,,1.7124999999999999,-0.031637351959943771,,1.7124999999999999,0.020506581291556358,
,,,1.7150000000000001,-0.032863419502973557,,1.7150000000000001,0.019400715827941895,
,,,1.7175,-0.034281812608242035,,1.7175,0.018174648284912109,
,,,1.72,-0.036661826074123383,,1.72,0.015866756439208984,
,,,1.7224999999999999,-0.037214756011962891,,1.7224999999999999,0.015121500007808208,
,,,1.7250000000000001,-0.037214756011962891,,1.7250000000000001,0.014881094917654991,
,,,1.7275,-0.036661826074123383,,1.7275,0.01521766185760498,
,,,1.73,-0.034257769584655762,,1.73,0.017405351623892784,
,,,1.7324999999999999,-0.032767258584499359,,1.7324999999999999,0.018967986106872559,
,,,1.7350000000000001,-0.031372904777526855,,1.7350000000000001,0.020530622452497482,
,,,1.7375,-0.030194919556379318,,1.7375,0.021852850914001465,
,,,1.74,-0.028872689232230186,,1.74,0.022982757538557053,
,,,1.7424999999999999,-0.028752487152814865,,1.7424999999999999,0.022622149437665939,
,,,1.7450000000000001,-0.02889673039317131,,1.7450000000000001,0.02170860767364502,
,,,1.7475000000000001,-0.029209256172180176,,1.7475000000000001,0.020386379212141037,
,,,1.75,-0.02997855469584465,,1.75,0.017453432083129883,
,,,1.7524999999999999,-0.030363202095031738,,1.7524999999999999,0.016275446861982346,
,,,1.7549999999999999,-0.030723810195922852,,1.7549999999999999,0.015482108108699322,
,,,1.7575000000000001,-0.031180581077933311,,1.7575000000000001,0.015169581398367882,
,,,1.76,-0.032671093940734863,,1.76,0.015794634819030762,
,,,1.7625,-0.033849082887172699,,1.7625,0.016539892181754112,
,,,1.7649999999999999,-0.035363636910915375,,1.7649999999999999,0.017405351623892784,
,,,1.7675000000000001,-0.037094555795192719,,1.7675000000000001,0.01829485222697258,
,,,1.77,-0.040700636804103851,,1.77,0.019809406250715256,
,,,1.7725,-0.042119026184082031,,1.7725,0.020434459671378136,
,,,1.7749999999999999,-0.043032567948102951,,1.7749999999999999,0.021011432632803917,
,,,1.7775000000000001,-0.043297015130519867,,1.7775000000000001,0.021516283974051476,
,,,1.78,-0.041806500405073166,,1.78,0.022213459014892578,
,,,1.7825,-0.040267907083034515,,1.7825,0.022237500175833702,
,,,1.7849999999999999,-0.038488905876874924,,1.7849999999999999,0.021852850914001465,
,,,1.7875000000000001,-0.036709904670715332,,1.7875000000000001,0.020987391471862793,
,,,1.79,-0.033969283103942871,,1.79,0.017453432083129883,
,,,1.7925,-0.033248066902160645,,1.7925,0.01490513514727354,
,,,1.7949999999999999,-0.032959580421447754,,1.7949999999999999,0.012020270340144634,
,,,1.7975000000000001,-0.033007662743330002,,1.7975000000000001,0.0090873241424560547,
,,,1.8,-0.03339231014251709,,1.8,0.0040868921205401421,
,,,1.8025,-0.033488474786281586,,1.8025,0.0025002162437886,
,,,1.8049999999999999,-0.033368270844221115,,1.8049999999999999,0.0017549594631418586,
,,,1.8075000000000001,-0.03305574506521225,,1.8075000000000001,0.0018270810833200812,
,,,1.8100000000000001,-0.03231048583984375,,1.8100000000000001,0.0039426488801836967,
,,,1.8125,-0.03214220330119133,,1.8125,0.0055293245241045952,
,,,1.8149999999999999,-0.03231048583984375,,1.8149999999999999,0.007091959472745657,
,,,1.8174999999999999,-0.032959580421447754,,1.8174999999999999,0.0083180274814367294,
,,,1.8200000000000001,-0.035748284310102463,,1.8200000000000001,0.0088709592819213867,
,,,1.8225,-0.037815771996974945,,1.8225,0.0079093379899859428,
,,,1.825,-0.040195785462856293,,1.825,0.0061062974855303764,
,,,1.8274999999999999,-0.042720042169094086,,1.8274999999999999,0.0035099189262837172,
,,,1.8300000000000001,-0.047600269317626953,,1.8300000000000001,-0.0036060810089111328,
,,,1.8325,-0.049667757004499435,,1.8325,-0.0078131761401891708,
,,,1.835,-0.051326554268598557,,1.835,-0.012212594971060753,
,,,1.8374999999999999,-0.052528582513332367,,1.8374999999999999,-0.016684135422110558,
,,,1.8400000000000001,-0.053466163575649261,,1.8400000000000001,-0.025098323822021484,
,,,1.8425,-0.05322575569152832,,1.8425,-0.028728445991873741,
,,,1.845,-0.052576661109924316,,1.845,-0.031757555902004242,
,,,1.8474999999999999,-0.051639080047607422,,1.8474999999999999,-0.033993326127529144,
,,,1.8500000000000001,-0.049235027283430099,,1.8500000000000001,-0.035339593887329102,
,,,1.8525,-0.048032999038696289,,1.8525,-0.034209690988063812,
,,,1.855,-0.047023296356201172,,1.855,-0.031757555902004242,
,,,1.8574999999999999,-0.046350162476301193,,1.8574999999999999,-0.028031270951032639,
,,,1.8600000000000001,-0.046806931495666504,,1.8600000000000001,-0.017188986763358116,
,,,1.8625,-0.048201285302639008,,1.8625,-0.010553797706961632,
,,,1.865,-0.050557255744934082,,1.865,-0.0034858784638345242,
,,,1.8674999999999999,-0.053922932595014572,,1.8674999999999999,0.0037503242492675781,
,,,1.8700000000000001,-0.063442990183830261,,1.8700000000000001,0.017693838104605675,
,,,1.8725000000000001,-0.069308876991271973,,1.8725000000000001,0.024064581841230392,
,,,1.875,-0.075607500970363617,,1.875,0.029834311455488205,
,,,1.8774999999999999,-0.08200228214263916,,1.8774999999999999,0.034954946488142014,
,,,1.8799999999999999,-0.093830227851867676,,1.8799999999999999,0.042792163789272308,
,,,1.8825000000000001,-0.098590254783630371,,1.8825000000000001,0.045244298875331879,
,,,1.885,-0.1021963357925415,,1.885,0.046518445014953613,
,,,1.8875,-0.10443210601806641,,1.8875,0.046470366418361664,
,,,1.8899999999999999,-0.10404746234416962,,1.8899999999999999,0.042311351746320724,
,,,1.8925000000000001,-0.10128279775381088,,1.8925000000000001,0.038512945175170898,
,,,1.895,-0.096787214279174805,,1.895,0.034185647964477539,
,,,1.8975,-0.090728998184204102,,1.8975,0.030050676316022873,
,,,1.8999999999999999,-0.074862241744995117,,1.8999999999999999,0.026204189285635948,
,,,1.9025000000000001,-0.065798960626125336,,1.9025000000000001,0.028656324371695518,
,,,1.905,-0.056567393243312836,,1.905,0.035315554589033127,
,,,1.9075,-0.047672390937805176,,1.9075,0.046903096139431,
,,,1.9099999999999999,-0.032647054642438889,,1.9099999999999999,0.085440084338188171,
,,,1.9125000000000001,-0.027117729187011719,,1.9125000000000001,0.11128365993499756,
,,,1.915,-0.023151040077209473,,1.915,0.13979575037956238,
,,,1.9175,-0.020698904991149902,,1.9175,0.16890883445739746,
,,,1.9199999999999999,-0.019785365089774132,,1.9199999999999999,0.21807174384593964,
,,,1.9225000000000001,-0.020867189392447472,,1.9225000000000001,0.23189505934715271,
,,,1.925,-0.022718310356140137,,1.925,0.23415486514568329,
,,,1.9275,-0.025146406143903732,,1.9275,0.22167782485485077,
,,,1.9299999999999999,-0.031372904777526855,,1.9299999999999999,0.14241616427898407,
,,,1.9325000000000001,-0.034978985786437988,,1.9325000000000001,0.07248222827911377,
,,,1.9350000000000001,-0.038705270737409592,,1.9350000000000001,-0.017934244126081467,
,,,1.9375,-0.042239230126142502,,1.9375,-0.12734274566173553,
,,,1.9399999999999999,-0.046590566635131836,,1.9399999999999999,-0.3893125057220459,
,,,1.9424999999999999,-0.045917432755231857,,1.9424999999999999,-0.5311276912689209,
,,,1.9450000000000001,-0.042143069207668304,,1.9450000000000001,-0.67077916860580444,
,,,1.9475,-0.034450095146894455,,1.9475,-0.80009323358535767,
,,,1.95,-0.0050004324875771999,,1.95,-0.99501395225524902,
,,,1.9524999999999999,0.016828378662467003,,1.9524999999999999,-1.0462683439254761,
,,,1.9550000000000001,0.042431555688381195,,1.9550000000000001,-1.0600435733795166,
,,,1.9575,0.07027050107717514,,1.9575,-1.0342961549758911,
,,,1.96,0.1231837272644043,,1.96,-0.87091666460037231,
,,,1.9624999999999999,0.14207959175109863,,1.9624999999999999,-0.74367010593414307,
,,,1.9650000000000001,0.15131115913391113,,1.9650000000000001,-0.59680640697479248,
,,,1.9675,0.14734447002410889,,1.9675,-0.44015824794769287,
,,,1.97,0.087627768516540527,,1.97,-0.13724744319915771,
,,,1.9724999999999999,0.027718743309378624,,1.9724999999999999,-0.0082459058612585068,
,,,1.9750000000000001,-0.053105555474758148,,1.9750000000000001,0.097556516528129578,
,,,1.9775,-0.15378734469413757,,1.9775,0.17717878520488739,
,,,1.98,-0.40222227573394775,,1.98,0.25845986604690552,
,,,1.9824999999999999,-0.53973418474197388,,1.9824999999999999,0.26572009921073914,
,,,1.9850000000000001,-0.67698162794113159,,1.9850000000000001,0.25687319040298462,
,,,1.9875,-0.8059350848197937,,1.9875,0.23713588714599609,
,,,1.99,-1.0062168836593628,,1.99,0.1845351904630661,
,,,1.9924999999999999,-1.0629525184631348,,1.9924999999999999,0.15914838016033173,
,,,1.9950000000000001,-1.0836755037307739,,1.9950000000000001,0.13746380805969238,
,,,1.9975000000000001,-1.0659575462341309,,1.9975000000000001,0.12037098407745361,
,,,2,-0.9198872447013855,89.552238464355469,2,0.09904702752828598,133.33334350585938
,,,2.0024999999999999,-0.80083847045898438,,2.0024999999999999,0.093036890029907227,
,,,2.0049999999999999,-0.66125911474227905,,2.0049999999999999,0.088685557246208191,
,,,2.0074999999999998,-0.51062107086181641,,2.0074999999999998,0.085055433213710785,
,,,2.0099999999999998,-0.21552345156669617,,2.0099999999999998,0.077554784715175629,
,,,2.0125000000000002,-0.0883970707654953,,2.0125000000000002,0.073251530528068542,
,,,2.0150000000000001,0.016587972640991211,,2.0150000000000001,0.068755947053432465,
,,,2.0175000000000001,0.096065998077392578,,2.0175000000000001,0.06428440660238266,
,,,2.02,0.17785191535949707,,2.02,0.056447189301252365,
,,,2.0225,0.1851842850446701,,2.0225,0.053418081253767014,
,,,2.0249999999999999,0.1760488748550415,,2.0249999999999999,0.050989985466003418,
,,,2.0274999999999999,0.15561442077159882,,2.0274999999999999,0.049090784043073654,
,,,2.0299999999999998,0.10058562457561493,,2.0299999999999998,0.046205919235944748,
,,,2.0325000000000002,0.073732338845729828,,2.0325000000000002,0.04490773007273674,
,,,2.0350000000000001,0.050629377365112305,,2.0350000000000001,0.043561458587646484,
,,,2.0375000000000001,0.032238364219665527,,2.0375000000000001,0.042070947587490082,
,,,2.04,0.0091834869235754013,,2.04,0.038825474679470062,
,,,2.0425,0.0028367838822305202,,2.0425,0.037118595093488693,
,,,2.0449999999999999,-0.0015145540237426758,,2.0449999999999999,0.035411715507507324,
,,,2.0474999999999999,-0.004832148551940918,,2.0474999999999999,0.03197392076253891,
,,,2.0499999999999998,-0.010986527428030968,,2.0499999999999998,0.030194919556379318,
,,,2.0525000000000002,-0.014352202415466309,,2.0525000000000002,0.028223594650626183,
,,,2.0550000000000002,-0.017814040184020996,,2.0550000000000002,0.026035904884338379,
,,,2.0575000000000001,-0.021227797493338585,,2.0575000000000001,0.020554661750793457,
,,,2.0600000000000001,-0.027237933129072189,,2.0600000000000001,0.017237067222595215,
,,,2.0625,-0.02969006821513176,,2.0625,0.013582905754446983,
,,,2.0649999999999999,-0.031853716820478439,,2.0649999999999999,0.0097123784944415092,
,,,2.0674999999999999,-0.033873122185468674,,2.0674999999999999,0.0058658919297158718,
,,,2.0699999999999998,-0.038248501718044281,,2.0699999999999998,-0.00091354054166004062,
,,,2.0724999999999998,-0.040820837020874023,,2.0724999999999998,-0.0033656756859272718,
,,,2.0750000000000002,-0.04370570182800293,,2.0750000000000002,-0.0049763917922973633,
,,,2.0775000000000001,-0.046806931495666504,,2.0775000000000001,-0.0056495270691812038,
,,,2.0800000000000001,-0.053177677094936371,,2.0800000000000001,-0.0049523515626788139,
,,,2.0825,-0.0561346635222435,,2.0825,-0.0038945674896240234,
,,,2.085,-0.058779120445251465,,2.085,-0.0027887027245014906,
,,,2.0874999999999999,-0.061062972992658615,,2.0874999999999999,-0.0017549594631418586,
,,,2.0899999999999999,-0.064645014703273773,,2.0899999999999999,-0.002283851383253932,
,,,2.0924999999999998,-0.066135525703430176,,2.0924999999999998,-0.0037022433243691921,
,,,2.0950000000000002,-0.067553922533988953,,2.0950000000000002,-0.0059620542451739311,
,,,2.0975000000000001,-0.068996354937553406,,2.0975000000000001,-0.012669364921748638,
,,,2.1000000000000001,-0.072145663201808929,,2.1000000000000001,-0.016780298203229904,
,,,2.1025,-0.0738525390625,,2.1025,-0.021179717034101486,
,,,2.105,-0.075583457946777344,,2.105,-0.025747418403625488,
,,,2.1074999999999999,-0.077218219637870789,,2.1074999999999999,-0.035243432968854904,
,,,2.1099999999999999,-0.080006919801235199,,2.1099999999999999,-0.040219824761152267,
,,,2.1124999999999998,-0.081112787127494812,,2.1124999999999998,-0.045436620712280273,
,,,2.1150000000000002,-0.082146525382995605,,2.1150000000000002,-0.050965946167707443,
,,,2.1175000000000002,-0.083252392709255219,,2.1175000000000002,-0.063082382082939148,
,,,2.1200000000000001,-0.08661806583404541,,2.1200000000000001,-0.069693528115749359,
,,,2.1225000000000001,-0.089382730424404144,,2.1225000000000001,-0.076569125056266785,
,,,2.125,-0.093084976077079773,,2.125,-0.083637043833732605,
,,,2.1274999999999999,-0.10356664657592773,,2.1274999999999999,-0.09801328182220459,
,,,2.1299999999999999,-0.11008163541555405,,2.1299999999999999,-0.10515332221984863,
,,,2.1324999999999998,-0.11702935397624969,,2.1324999999999998,-0.11222124099731445,
,,,2.1349999999999998,-0.12407322973012924,,2.1349999999999998,-0.11928915977478027,
,,,2.1375000000000002,-0.1366945207118988,,2.1375000000000002,-0.13368944823741913,
,,,2.1400000000000001,-0.14169494807720184,,2.1400000000000001,-0.14126221835613251,
,,,2.1425000000000001,-0.14563760161399841,,2.1425000000000001,-0.14926771819591522,
,,,2.145,-0.14866670966148376,,2.145,-0.15770594775676727,
,,,2.1475,-0.15099863708019257,,2.1475,-0.17583250999450684,
,,,2.1499999999999999,-0.15520572662353516,,2.1499999999999999,-0.18523237109184265,
,,,2.1524999999999999,-0.15789827704429626,,2.1524999999999999,-0.1945120096206665,
,,,2.1549999999999998,-0.16145627200603485,,2.1549999999999998,-0.20340701937675476,
,,,2.1575000000000002,-0.17155329883098602,,2.1575000000000002,-0.21888911724090576,
,,,2.1600000000000001,-0.17794808745384216,,2.1600000000000001,-0.22506754100322723,
,,,2.1625000000000001,-0.18487176299095154,,2.1625000000000001,-0.23011605441570282,
,,,2.165,-0.19196371734142303,,2.165,-0.23403465747833252,
,,,2.1675,-0.20525813102722168,,2.1675,-0.23925146460533142,
,,,2.1699999999999999,-0.21102786064147949,,2.1699999999999999,-0.24095833301544189,
,,,2.1724999999999999,-0.21610042452812195,,2.1724999999999999,-0.242352694272995,
,,,2.1749999999999998,-0.2207162082195282,,2.1749999999999998,-0.24360279738903046,
,,,2.1775000000000002,-0.22973141074180603,,2.1775000000000002,-0.24571835994720459,
,,,2.1800000000000002,-0.23497223854064941,,2.1800000000000002,-0.24636745452880859,
,,,2.1825000000000001,-0.24122278392314911,,2.1825000000000001,-0.24643957614898682,
,,,2.1850000000000001,-0.24874746799468994,,2.1850000000000001,-0.24564623832702637,
,,,2.1875,-0.26785969734191895,,2.1875,-0.24011692404747009,
,,,2.1899999999999999,-0.2790866494178772,,2.1899999999999999,-0.23480395972728729,
,,,2.1924999999999999,-0.29096266627311707,,2.1924999999999999,-0.22754371166229248,
,,,2.1949999999999998,-0.30300697684288025,,2.1949999999999998,-0.21824002265930176,
,,,2.1974999999999998,-0.32548487186431885,,2.1974999999999998,-0.19393503665924072,
,,,2.2000000000000002,-0.33505302667617798,,2.2000000000000002,-0.17936646938323975,
,,,2.2025000000000001,-0.34313064813613892,,2.2025000000000001,-0.16366800665855408,
,,,2.2050000000000001,-0.34964561462402344,,2.2050000000000001,-0.14722427725791931,
,,,2.2075,-0.35805982351303101,,2.2075,-0.1139521598815918,
,,,2.21,-0.36036771535873413,,2.21,-0.097845003008842468,
,,,2.2124999999999999,-0.36176204681396484,,2.2124999999999999,-0.082507133483886719,
,,,2.2149999999999999,-0.36248326301574707,,2.2149999999999999,-0.068106852471828461,
,,,2.2174999999999998,-0.36272367835044861,,2.2174999999999998,-0.042335391044616699,
,,,2.2200000000000002,-0.36243519186973572,,2.2200000000000002,-0.030795931816101074,
,,,2.2225000000000001,-0.36183416843414307,,2.2225000000000001,-0.0200017299503088,
,,,2.2250000000000001,-0.36070427298545837,,2.2250000000000001,-0.0097123784944415092,
,,,2.2275,-0.35567981004714966,,2.2275,0.0099047031253576279,
,,,2.23,-0.35099190473556519,,2.23,0.019424756988883018,
,,,2.2324999999999999,-0.34430861473083496,,2.2324999999999999,0.028728445991873741,
,,,2.2349999999999999,-0.33529341220855713,,2.2349999999999999,0.037719607353210449,
,,,2.2374999999999998,-0.3096662163734436,,2.2374999999999998,0.05397101491689682,
,,,2.2400000000000002,-0.2931743860244751,,2.2400000000000002,0.060798525810241699,
,,,2.2425000000000002,-0.27468723058700562,,2.2425000000000002,0.066520176827907562,
,,,2.2450000000000001,-0.25475761294364929,,2.2450000000000001,0.07106383889913559,
,,,2.2475000000000001,-0.21321555972099304,,2.2475000000000001,0.076977811753749847,
,,,2.25,-0.19297342002391815,,2.25,0.078804895281791687,
,,,2.2524999999999999,-0.17386119067668915,,2.2524999999999999,0.080343484878540039,
,,,2.2549999999999999,-0.1562875509262085,,2.2549999999999999,0.081954203546047211,
,,,2.2574999999999998,-0.12633304297924042,,2.2574999999999998,0.086425743997097015,
,,,2.2599999999999998,-0.11383195966482162,,2.2599999999999998,0.089502930641174316,
,,,2.2625000000000002,-0.10270118713378906,,2.2625000000000002,0.093036890029907227,
,,,2.2650000000000001,-0.092628203332424164,,2.2650000000000001,0.096811257302761078,
,,,2.2675000000000001,-0.074573755264282227,,2.2675000000000001,0.10048945993185043,
,,,2.27,-0.066135525703430176,,2.27,0.10635535418987274,
,,,2.2725,-0.057961743324995041,,2.2725,0.10811030864715576,
,,,2.2749999999999999,-0.050004325807094574,,2.2749999999999999,0.10904788970947266,
,,,2.2774999999999999,-0.035027068108320236,,2.2774999999999999,0.10895173251628876,
,,,2.2799999999999998,-0.028223594650626183,,2.2799999999999998,0.1084468811750412,
,,,2.2825000000000002,-0.02199709415435791,,2.2825000000000002,0.10799010843038559,
,,,2.2850000000000001,-0.016491811722517014,,2.2850000000000001,0.10779778659343719,
,,,2.2875000000000001,-0.0077170133590698242,,2.2875000000000001,0.10859112441539764,
,,,2.29,-0.0044715404510498047,,2.29,0.10948061943054199,
,,,2.2925,-0.0019713244400918484,,2.2925,0.11049032211303711,
,,,2.2949999999999999,-0.00012020270514767617,,2.2949999999999999,0.11140386760234833,
,,,2.2974999999999999,0.0018751621246337891,,2.2974999999999999,0.11243760585784912,
,,,2.2999999999999998,0.0021876893006265163,,2.2999999999999998,0.1123654842376709,
,,,2.3025000000000002,0.0022117297630757093,,2.3025000000000002,0.11193275451660156,
,,,2.3050000000000002,0.002043446060270071,,2.3050000000000002,0.11123558133840561,
,,,2.3075000000000001,0.0014905135612934828,,2.3075000000000001,0.10960082709789276,
,,,2.3100000000000001,0.0013703107833862305,,2.3100000000000001,0.10890364646911621,
,,,2.3125,0.0014424324035644531,,2.3125,0.10839879512786865,
,,,2.3149999999999999,0.0017790000420063734,,2.3149999999999999,0.10808627307415009,
,,,2.3174999999999999,0.0033416352234780788,,2.3174999999999999,0.10772566497325897,
,,,2.3199999999999998,0.0044715404510498047,,2.3199999999999998,0.10748525708913803,
,,,2.3224999999999998,0.0057216486893594265,,2.3224999999999998,0.10707657039165497,
,,,2.3250000000000002,0.0069957971572875977,,2.3250000000000002,0.10642747581005096,
,,,2.3275000000000001,0.009135405533015728,,2.3275000000000001,0.10440807044506073,
,,,2.3300000000000001,0.0098566217347979546,,2.3300000000000001,0.10308583825826645,
,,,2.3325,0.010385513305664062,,2.3325,0.10159532725811005,
,,,2.335,0.010722081176936626,,2.335,0.099984608590602875,
,,,2.3374999999999999,0.011419257149100304,,2.3374999999999999,0.096282362937927246,
,,,2.3399999999999999,0.012020270340144634,,2.3399999999999999,0.094118714332580566,
,,,2.3424999999999998,0.012957851402461529,,2.3424999999999998,0.091714665293693542,
,,,2.3450000000000002,0.01430412195622921,,2.3450000000000002,0.089022122323513031,
,,,2.3475000000000001,0.018150608986616135,,2.3475000000000001,0.083060070872306824,
,,,2.3500000000000001,0.020410418510437012,,2.3500000000000001,0.080006919801235199,
,,,2.3525,0.022598108276724815,,2.3525,0.077170133590698242,
,,,2.355,0.024473270401358604,,2.355,0.074693962931632996,
,,,2.3574999999999999,0.026083987206220627,,2.3574999999999999,0.071472525596618652,
,,,2.3599999999999999,0.0253627710044384,,2.3599999999999999,0.070799395442008972,
,,,2.3624999999999998,0.023439526557922363,,2.3624999999999998,0.070631109178066254,
,,,2.3650000000000002,0.020386379212141037,,2.3650000000000002,0.070847474038600922,
,,,2.3675000000000002,0.011827945709228516,,2.3675000000000002,0.071640811860561371,
,,,2.3700000000000001,0.0071881217882037163,,2.3700000000000001,0.071929298341274261,
,,,2.3725000000000001,0.0029810271225869656,,2.3725000000000001,0.072049498558044434,
,,,2.375,-0.00024040541029535234,,2.375,0.072049498558044434,
,,,2.3774999999999999,-0.002259810920804739,,2.3774999999999999,0.072049498558044434,
,,,2.3799999999999999,-0.00081737840082496405,,2.3799999999999999,0.072313949465751648,
,,,2.3824999999999998,0.0020194053649902344,,2.3824999999999998,0.072866879403591156,
,,,2.3849999999999998,0.0057697296142578125,,2.3849999999999998,0.073732338845729828,
,,,2.3875000000000002,0.013294419273734093,,2.3875000000000002,0.075895987451076508,
,,,2.3900000000000001,0.015650391578674316,,2.3900000000000001,0.076857611536979675,
,,,2.3925000000000001,0.01629948616027832,,2.3925000000000001,0.077434584498405457,
,,,2.395,0.014881094917654991,,2.395,0.077530741691589355,
,,,2.3975,0.0060822567902505398,,2.3975,0.075895987451076508,
,,,2.3999999999999999,-0.00055293244076892734,,2.3999999999999999,0.074309311807155609,
,,,2.4024999999999999,-0.0078131761401891708,,2.4024999999999999,0.072458192706108093,
,,,2.4049999999999998,-0.014977256767451763,,2.4049999999999998,0.070558987557888031,
,,,2.4075000000000002,-0.026108026504516602,,2.4075000000000002,0.067674122750759125,
,,,2.4100000000000001,-0.029089054092764854,,2.4100000000000001,0.067025028169155121,
,,,2.4125000000000001,-0.030098756775259972,,2.4125000000000001,0.067025028169155121,
,,,2.415,-0.0292332973331213,,2.415,0.067602001130580902,
,,,2.4175,-0.023415487259626389,,2.4175,0.069957971572875977,
,,,2.4199999999999999,-0.019593041390180588,,2.4199999999999999,0.071328282356262207,
,,,2.4224999999999999,-0.015914838761091232,,2.4224999999999999,0.072554349899291992,
,,,2.4249999999999998,-0.012885729782283306,,2.4249999999999998,0.07346789538860321,
,,,2.4275000000000002,-0.010024905204772949,,2.4275000000000002,0.073924660682678223,
,,,2.4300000000000002,-0.01028935145586729,,2.4300000000000002,0.073443852365016937,
,,,2.4325000000000001,-0.011491378769278526,,2.4325000000000001,0.072554349899291992,
,,,2.4350000000000001,-0.013294419273734093,,2.4350000000000001,0.07135232537984848,
,,,2.4375,-0.01721302792429924,,2.4375,0.068443417549133301,
,,,2.4399999999999999,-0.018679499626159668,,2.4399999999999999,0.066952906548976898,
,,,2.4424999999999999,-0.019569000229239464,,2.4424999999999999,0.065582595765590668,
,,,2.4449999999999998,-0.019881527870893478,,2.4449999999999998,0.064404606819152832,
,,,2.4474999999999998,-0.019352635368704796,,2.4474999999999998,0.062986217439174652,
,,,2.4500000000000002,-0.019040107727050781,,2.4500000000000002,0.062890052795410156,
,,,2.4525000000000001,-0.019112229347229004,,2.4525000000000001,0.063322782516479492,
,,,2.4550000000000001,-0.019761323928833008,,2.4550000000000001,0.064260363578796387,
,,,2.4575,-0.023223161697387695,,2.4575,0.067505836486816406,
,,,2.46,-0.025867622345685959,,2.46,0.069549284875392914,
,,,2.4624999999999999,-0.028752487152814865,,2.4624999999999999,0.071640811860561371,
,,,2.4649999999999999,-0.031541191041469574,,2.4649999999999999,0.073540017008781433,
,,,2.4674999999999998,-0.035195350646972656,,2.4674999999999998,0.076136395335197449,
,,,2.4700000000000002,-0.035411715507507324,,2.4700000000000002,0.076593160629272461,
,,,2.4725000000000001,-0.034281812608242035,,2.4725000000000001,0.076424881815910339,
,,,2.4750000000000001,-0.031829677522182465,,2.4750000000000001,0.075751744210720062,
,,,2.4775,-0.023920338600873947,,2.4775,0.073419809341430664,
,,,2.48,-0.019208392128348351,,2.48,0.072121620178222656,
,,,2.4824999999999999,-0.014664730057120323,,2.4824999999999999,0.070919595658779144,
,,,2.4849999999999999,-0.010722081176936626,,2.4849999999999999,0.069909892976284027,
,,,2.4874999999999998,-0.0060101351700723171,,2.4874999999999998,0.068443417549133301,
,,,2.4900000000000002,-0.0056014461442828178,,2.4900000000000002,0.067914530634880066,
,,,2.4925000000000002,-0.0064428648911416531,,2.4925000000000002,0.067361593246459961,
,,,2.4950000000000001,-0.0083661079406738281,,2.4950000000000001,0.066760584712028503,
,,,2.4975000000000001,-0.01430412195622921,,2.4975000000000001,0.065221987664699554,
,,,2.5,-0.017669796943664551,,2.5,0.064380571246147156,
,,,2.5024999999999999,-0.020939311012625694,,2.5024999999999999,0.063635312020778656,
,,,2.5049999999999999,-0.023872256278991699,,2.5049999999999999,0.063130460679531097,
,,,2.5074999999999998,-0.028127431869506836,,2.5074999999999998,0.063322782516479492,
,,,2.5099999999999998,-0.0292332973331213,,2.5099999999999998,0.064188241958618164,
,,,2.5125000000000002,-0.029641985893249512,,2.5125000000000002,0.065582595765590668,
,,,2.5150000000000001,-0.029353499412536621,,2.5150000000000001,0.067361593246459961,
,,,2.5175000000000001,-0.026901364326477051,,2.5175000000000001,0.071424447000026703,
,,,2.52,-0.025026202201843262,,2.52,0.073299609124660492,
,,,2.5225,-0.022934675216674805,,2.5225,0.074766084551811218,
,,,2.5249999999999999,-0.020891230553388596,,2.5249999999999999,0.075703665614128113,
,,,2.5274999999999999,-0.017790000885725021,,2.5274999999999999,0.075871944427490234,
,,,2.5299999999999998,-0.017044743523001671,,2.5299999999999998,0.075246892869472504,
,,,2.5325000000000002,-0.016972621902823448,,2.5325000000000002,0.074381433427333832,
,,,2.5350000000000001,-0.017501514405012131,,2.5350000000000001,0.073443852365016937,
,,,2.5375000000000001,-0.019737284630537033,,2.5375000000000001,0.071977376937866211,
,,,2.54,-0.020987391471862793,,2.54,0.071640811860561371,
,,,2.5425,-0.021973054856061935,,2.5425,0.071520611643791199,
,,,2.5449999999999999,-0.022525986656546593,,2.5449999999999999,0.071544647216796875,
,,,2.5474999999999999,-0.021924972534179688,,2.5474999999999999,0.071472525596618652,
,,,2.5499999999999998,-0.020891230553388596,,2.5499999999999998,0.071111917495727539,
,,,2.5525000000000002,-0.019617080688476562,,2.5525000000000002,0.070438787341117859,
,,,2.5550000000000002,-0.018439095467329025,,2.5550000000000002,0.069525241851806641,
,,,2.5575000000000001,-0.017405351623892784,,2.5575000000000001,0.067337557673454285,
,,,2.5600000000000001,-0.018078487366437912,,2.5600000000000001,0.06639997661113739,
,,,2.5625,-0.019617080688476562,,2.5625,0.065847039222717285,
,,,2.5649999999999999,-0.022021135315299034,,2.5649999999999999,0.065823003649711609,
,,,2.5674999999999999,-0.028247635811567307,,2.5674999999999999,0.067722201347351074,
,,,2.5699999999999998,-0.031300783157348633,,2.5699999999999998,0.069621406495571136,
,,,2.5724999999999998,-0.033776961266994476,,2.5724999999999998,0.071953341364860535,
,,,2.5750000000000002,-0.035267472267150879,,2.5750000000000002,0.074525676667690277,
,,,2.5775000000000001,-0.034522216767072678,,2.5775000000000001,0.079429946839809418,
,,,2.5800000000000001,-0.032358568161725998,,2.5800000000000001,0.081281065940856934,
,,,2.5825,-0.029281377792358398,,2.5825,0.082435011863708496,
,,,2.585,-0.025723379105329514,,2.585,0.082867741584777832,
,,,2.5874999999999999,-0.019064148887991905,,2.5874999999999999,0.081689760088920593,
,,,2.5899999999999999,-0.016732215881347656,,2.5899999999999999,0.080439649522304535,
,,,2.5924999999999998,-0.015409986488521099,,2.5924999999999998,0.079069338738918304,
,,,2.5950000000000002,-0.015145540237426758,,2.5950000000000002,0.077819228172302246,
,,,2.5975000000000001,-0.01709282398223877,,2.5975000000000001,0.076545082032680511,
,,,2.6000000000000001,-0.018727581948041916,,2.6000000000000001,0.076617203652858734,
,,,2.6025,-0.020338296890258789,,2.6025,0.077073976397514343,
,,,2.605,-0.021660527214407921,,2.605,0.077674984931945801,
,,,2.6074999999999999,-0.022477906197309494,,2.6074999999999999,0.078203879296779633,
,,,2.6099999999999999,-0.022333662956953049,,2.6099999999999999,0.077626906335353851,
,,,2.6124999999999998,-0.021540325134992599,,2.6124999999999998,0.07630467414855957,
,,,2.6150000000000002,-0.020530622452497482,,2.6150000000000002,0.074213147163391113,
,,,2.6175000000000002,-0.018679499626159668,,2.6175000000000002,0.068467460572719574,
,,,2.6200000000000001,-0.018174648284912109,,2.6200000000000001,0.065414309501647949,
,,,2.6225000000000001,-0.018078487366437912,,2.6225000000000001,0.062673687934875488,
,,,2.625,-0.018366973847150803,,2.625,0.060558121651411057,
,,,2.6274999999999999,-0.019809406250715256,,2.6274999999999999,0.058947406709194183,
,,,2.6299999999999999,-0.020674865692853928,,2.6299999999999999,0.059500336647033691,
,,,2.6324999999999998,-0.021492242813110352,,2.6324999999999998,0.060702364891767502,
,,,2.6349999999999998,-0.022141337394714355,,2.6349999999999998,0.062361162155866623,
,,,2.6375000000000002,-0.022838514298200607,,2.6375000000000002,0.06565471738576889,
,,,2.6400000000000001,-0.022982757538557053,,2.6400000000000001,0.066760584712028503,
,,,2.6425000000000001,-0.023127000778913498,,2.6425000000000001,0.067289471626281738,
,,,2.645,-0.023367404937744141,,2.645,0.067217350006103516,
,,,2.6475,-0.024521350860595703,,2.6475,0.065726839005947113,
,,,2.6499999999999999,-0.025507014244794846,,2.6499999999999999,0.064741179347038269,
,,,2.6524999999999999,-0.026733081787824631,,2.6524999999999999,0.063923798501491547,
,,,2.6549999999999998,-0.028175514191389084,,2.6549999999999998,0.063418947160243988,
,,,2.6575000000000002,-0.031493108719587326,,2.6575000000000002,0.06353914737701416,
,,,2.6600000000000001,-0.033296149224042892,,2.6600000000000001,0.06394784152507782,
,,,2.6625000000000001,-0.035171311348676682,,2.6625000000000001,0.064164206385612488,
,,,2.665,-0.037166677415370941,,2.665,0.063851676881313324,
,,,2.6675,-0.041325688362121582,,2.6675,0.060173474252223969,
,,,2.6699999999999999,-0.043345093727111816,,2.6699999999999999,0.05630294606089592,
,,,2.6724999999999999,-0.045124094933271408,,2.6724999999999999,0.051038067787885666,
,,,2.6749999999999998,-0.046446323394775391,,2.6749999999999998,0.044571161270141602,
,,,2.6775000000000002,-0.046951174736022949,,2.6775000000000002,0.029810270294547081,
,,,2.6800000000000002,-0.045869350433349609,,2.6800000000000002,0.022646188735961914,
,,,2.6825000000000001,-0.043922066688537598,,2.6825000000000001,0.01646777056157589,
,,,2.6850000000000001,-0.041301649063825607,,2.6850000000000001,0.011827945709228516,
,,,2.6875,-0.038392744958400726,,2.6875,0.0086305541917681694,
,,,2.6899999999999999,-0.033801000565290451,,2.6899999999999999,0.010337432846426964,
,,,2.6924999999999999,-0.033175945281982422,,2.6924999999999999,0.014039675705134869,
,,,2.6949999999999998,-0.03430585190653801,,2.6949999999999998,0.019424756988883018,
,,,2.6974999999999998,-0.04257579892873764,,2.6974999999999998,0.033440392464399338,
,,,2.7000000000000002,-0.049499474465847015,,2.7000000000000002,0.041109323501586914,
,,,2.7025000000000001,-0.057745378464460373,,2.7025000000000001,0.048706136643886566,
,,,2.7050000000000001,-0.066616341471672058,,2.7050000000000001,0.055918298661708832,
,,,2.7075,-0.0830841064453125,,2.7075,0.068587660789489746,
,,,2.71,-0.08919040858745575,,2.71,0.073996782302856445,
,,,2.7124999999999999,-0.0930609330534935,,2.7124999999999999,0.078828930854797363,
,,,2.7149999999999999,-0.094383165240287781,,2.7149999999999999,0.0830841064453125,
,,,2.7174999999999998,-0.089502930641174316,,2.7174999999999998,0.089959703385829926,
,,,2.7200000000000002,-0.083901487290859222,,2.7200000000000002,0.092387795448303223,
,,,2.7225000000000001,-0.076929733157157898,,2.7225000000000001,0.093998514115810394,
,,,2.7250000000000001,-0.069212719798088074,,2.7250000000000001,0.094647608697414398,
,,,2.7275,-0.053826771676540375,,2.7275,0.092772446572780609,
,,,2.73,-0.047047339379787445,,2.73,0.090416476130485535,
,,,2.7324999999999999,-0.041133366525173187,,2.7324999999999999,0.087459489703178406,
,,,2.7349999999999999,-0.036060810089111328,,2.7349999999999999,0.084430381655693054,
,,,2.7374999999999998,-0.027862986549735069,,2.7374999999999998,0.080752179026603699,
,,,2.7400000000000002,-0.024208825081586838,,2.7400000000000002,0.08171379566192627,
,,,2.7425000000000002,-0.020578702911734581,,2.7425000000000002,0.085704527795314789,
,,,2.7450000000000001,-0.016876459121704102,,2.7450000000000001,0.093421541154384613,
,,,2.7475000000000001,-0.0093758106231689453,,2.7475000000000001,0.12202978134155273,
,,,2.75,-0.0060101351700723171,,2.75,0.1430412232875824,
,,,2.7524999999999999,-0.0033416352234780788,,2.7524999999999999,0.16789913177490234,
,,,2.7549999999999999,-0.0017068784218281507,,2.7549999999999999,0.1954495906829834,
,,,2.7574999999999998,-0.0026444594841450453,,2.7574999999999998,0.2513919472694397,
,,,2.7599999999999998,-0.0052648782730102539,,2.7599999999999998,0.27475935220718384,
,,,2.7625000000000002,-0.0089911622926592827,,2.7625000000000002,0.29098671674728394,
,,,2.7650000000000001,-0.01322229765355587,,2.7650000000000001,0.2966122031211853,
,,,2.7675000000000001,-0.019448798149824142,,2.7675000000000001,0.26254674792289734,
,,,2.77,-0.019256472587585449,,2.77,0.21696588397026062,
,,,2.7725,-0.015313824638724327,,2.7725,0.14970044791698456,
,,,2.7749999999999999,-0.0068034729920327663,,2.7749999999999999,0.060245595872402191,
,,,2.7774999999999999,0.025458931922912598,,2.7774999999999999,-0.17929434776306152,
,,,2.7799999999999998,0.048561893403530121,,2.7799999999999998,-0.32190284132957458,
,,,2.7825000000000002,0.074693962931632996,,2.7825000000000002,-0.47172349691390991,
,,,2.7850000000000001,0.10193189233541489,,2.7850000000000001,-0.62087100744247437,
,,,2.7875000000000001,0.14878690242767334,,2.7875000000000001,-0.8814704418182373,
,,,2.79,0.16198515892028809,,2.79,-0.97518050670623779,
,,,2.7925,0.16386032104492188,,2.7925,-1.0344403982162476,
,,,2.7949999999999999,0.15116691589355469,,2.7949999999999999,-1.0541777610778809,
,,,2.7974999999999999,0.071544647216796875,,2.7974999999999999,-0.96924245357513428,
,,,2.7999999999999998,0.001466472982428968,,2.7999999999999998,-0.86945021152496338,
,,,2.8025000000000002,-0.089046165347099304,,2.8025000000000002,-0.73960721492767334,
,,,2.8050000000000002,-0.1983344554901123,,2.8050000000000002,-0.5887528657913208,
,,,2.8075000000000001,-0.45903009176254272,,2.8075000000000001,-0.26533544063568115,
,,,2.8100000000000001,-0.59933066368103027,,2.8100000000000001,-0.11308670043945312,
,,,2.8125,-0.73672235012054443,,2.8125,0.021468203514814377,
,,,2.8149999999999999,-0.86303138732910156,,2.8149999999999999,0.13253550231456757,
,,,2.8174999999999999,-1.0499947071075439,,2.8174999999999999,0.27427852153778076,
,,,2.8199999999999998,-1.0967775583267212,,2.8199999999999998,0.30637264251708984,
,,,2.8224999999999998,-1.1061774492263794,,2.8224999999999998,0.31695050001144409,
,,,2.8250000000000002,-1.0765594244003296,,2.8250000000000002,0.31086823344230652,
,,,2.8275000000000001,-0.90834778547286987,,2.8275000000000001,0.26968678832054138,
,,,2.8300000000000001,-0.78054827451705933,,2.8300000000000001,0.24403552711009979,
,,,2.8325,-0.63440585136413574,,2.8325,0.21975457668304443,
,,,2.835,-0.4796568751335144,,2.835,0.19895951449871063,
,,,2.8374999999999999,-0.1828523576259613,,2.8374999999999999,0.17100036144256592,
,,,2.8399999999999999,-0.057336688041687012,,2.8399999999999999,0.16328334808349609,
,,,2.8424999999999998,0.045148134231567383,,2.8424999999999998,0.15854737162590027,
,,,2.8450000000000002,0.12181341648101807,,2.8450000000000002,0.15568654239177704,
,,,2.8475000000000001,0.19871911406517029,,2.8475000000000001,0.15169581770896912,
,,,2.8500000000000001,0.20456096529960632,,2.8500000000000001,0.14926771819591522,
,,,2.8525,0.19463221728801727,,2.8525,0.14614245295524597,
,,,2.855,0.17402946949005127,,2.855,0.14232000708580017,
,,,2.8574999999999999,0.11996229737997055,,2.8574999999999999,0.13332884013652802,
,,,2.8599999999999999,0.093974471092224121,,2.8599999999999999,0.12864093482494354,
,,,2.8624999999999998,0.071785055100917816,,2.8624999999999998,0.12419342994689941,
,,,2.8650000000000002,0.054451823234558105,,2.8650000000000002,0.12013058364391327,
,,,2.8675000000000002,0.033752918243408203,,2.8675000000000002,0.11366367340087891,
,,,2.8700000000000001,0.028728445991873741,,2.8700000000000001,0.11130770295858383,
,,,2.8725000000000001,0.025771459564566612,,2.8725000000000001,0.10943254083395004,
,,,2.875,0.023800134658813477,,2.875,0.10794202983379364,
,,,2.8774999999999999,0.019520919770002365,,2.8774999999999999,0.10551393032073975,
,,,2.8799999999999999,0.016395648941397667,,2.8799999999999999,0.10421574115753174,
,,,2.8824999999999998,0.012501081451773643,,2.8824999999999998,0.10270118713378906,
,,,2.8849999999999998,0.0080535812303423882,,2.8849999999999998,0.10085006803274155,
,,,2.8875000000000002,-0.0010577838402241468,,2.8875000000000002,0.095969840884208679,
,,,2.8900000000000001,-0.0049763917922973633,,2.8900000000000001,0.093036890029907227,
,,,2.8925000000000001,-0.0080776214599609375,,2.8925000000000001,0.089935660362243652,
,,,2.895,-0.010217229835689068,,2.895,0.086786352097988129,
,,,2.8975,-0.011900067329406738,,2.8975,0.081016622483730316,
,,,2.8999999999999999,-0.011900067329406738,,2.8999999999999999,0.078588530421257019,
,,,2.9024999999999999,-0.011827945709228516,,2.9024999999999999,0.076545082032680511,
,,,2.9049999999999998,-0.012020270340144634,,2.9049999999999998,0.074910327792167664,
,,,2.9075000000000002,-0.014520486816763878,,2.9075000000000002,0.072674557566642761,
,,,2.9100000000000001,-0.01709282398223877,,2.9100000000000001,0.071977376937866211,
,,,2.9125000000000001,-0.020506581291556358,,2.9125000000000001,0.071472525596618652,
,,,2.915,-0.024545392021536827,,2.915,0.071087881922721863,
,,,2.9175,-0.033368270844221115,,2.9175,0.070414744317531586,
,,,2.9199999999999999,-0.037599407136440277,,2.9199999999999999,0.0699339359998703,
,,,2.9224999999999999,-0.041469931602478027,,2.9224999999999999,0.069212719798088074,
,,,2.9249999999999998,-0.04490773007273674,,2.9249999999999998,0.068106852471828461,
,,,2.9275000000000002,-0.051014028489589691,,2.9275000000000002,0.064476728439331055,
,,,2.9300000000000002,-0.053995054215192795,,2.9300000000000002,0.061808228492736816,
,,,2.9325000000000001,-0.057168405503034592,,2.9325000000000001,0.058610837906599045,
,,,2.9350000000000001,-0.060654282569885254,,2.9350000000000001,0.054956674575805664,
,,,2.9375,-0.068347260355949402,,2.9375,0.046806931495666504,
,,,2.9399999999999999,-0.072241827845573425,,2.9399999999999999,0.04262387752532959,
,,,2.9424999999999999,-0.075847908854484558,,2.9424999999999999,0.038561027497053146,
,,,2.9449999999999998,-0.078925095498561859,,2.9449999999999998,0.034738581627607346,
,,,2.9474999999999998,-0.082771584391593933,,2.9474999999999998,0.027790864929556847,
,,,2.9500000000000002,-0.083516836166381836,,2.9500000000000002,0.024545392021536827,
,,,2.9525000000000001,-0.083685122430324554,,2.9525000000000001,0.021251838654279709,
,,,2.9550000000000001,-0.083564922213554382,,2.9550000000000001,0.017765959724783897,
,,,2.9575,-0.083829365670681,,2.9575,0.0095681352540850639,
,,,2.96,-0.084887146949768066,,2.96,0.0046398243866860867,
,,,2.9624999999999999,-0.086858473718166351,,2.9624999999999999,-0.00093758106231689453,
,,,2.9649999999999999,-0.089791417121887207,,2.9649999999999999,-0.007140040397644043,
,,,2.9674999999999998,-0.098061367869377136,,2.9674999999999998,-0.02108355425298214,
,,,2.9700000000000002,-0.10289351642131805,,2.9700000000000002,-0.028656324371695518,
,,,2.9725000000000001,-0.10774970054626465,,2.9725000000000001,-0.036493539810180664,
,,,2.9750000000000001,-0.11234144866466522,,2.9750000000000001,-0.044595204293727875,
,,,2.9775,-0.12015461921691895,,2.9775,-0.061591863632202148,
,,,2.98,-0.12335201352834702,,2.98,-0.070583030581474304,
,,,2.9824999999999999,-0.12630900740623474,,2.9824999999999999,-0.080030962824821472,
,,,2.9849999999999999,-0.12936215102672577,,2.9849999999999999,-0.089911624789237976,
,,,2.9874999999999998,-0.13698300719261169,,2.9874999999999998,-0.1106826514005661,
,,,2.9900000000000002,-0.14217576384544373,,2.9900000000000002,-0.12123644351959229,
,,,2.9925000000000002,-0.148546501994133,,2.9925000000000002,-0.1314777135848999,
,,,2.9950000000000001,-0.15614330768585205,,2.9950000000000001,-0.14106988906860352,
,,,2.9975000000000001,-0.17467856407165527,,2.9975000000000001,-0.15703281760215759,
,,,3,-0.18523237109184265,89.552238464355469,3,-0.1629948616027832,63.4920654296875
,,,3.0024999999999999,-0.19629101455211639,,3.0024999999999999,-0.16749045252799988,
,,,3.0049999999999999,-0.20761410892009735,,3.0049999999999999,-0.17066380381584167,
,,,3.0074999999999998,-0.22989968955516815,,3.0074999999999998,-0.17410159111022949,
,,,3.0099999999999998,-0.24038136005401611,,3.0099999999999998,-0.17503917217254639,
,,,3.0125000000000002,-0.25016587972640991,,3.0125000000000002,-0.17590463161468506,
,,,3.0150000000000001,-0.25915703177452087,,3.0150000000000001,-0.17691433429718018,
,,,3.0175000000000001,-0.2745189368724823,,3.0175000000000001,-0.17955879867076874,
,,,3.02,-0.28100988268852234,,3.02,-0.18085698783397675,
,,,3.0225,-0.28689980506896973,,3.0225,-0.18172244727611542,
,,,3.0249999999999999,-0.29242914915084839,,3.0249999999999999,-0.18174648284912109,
,,,3.0274999999999999,-0.30327141284942627,,3.0274999999999999,-0.1774432361125946,
,,,3.0299999999999998,-0.3090171217918396,,3.0299999999999998,-0.17246684432029724,
,,,3.0325000000000002,-0.31505128741264343,,3.0325000000000002,-0.16535083949565887,
,,,3.0350000000000001,-0.32130181789398193,,3.0350000000000001,-0.15614330768585205,
,,,3.0375000000000001,-0.33358654379844666,,3.0375000000000001,-0.13224701583385468,
,,,3.04,-0.33882737159729004,,3.04,-0.11825542151927948,
,,,3.0425,-0.34291428327560425,,3.0425,-0.10344644635915756,
,,,3.0449999999999999,-0.3453904390335083,,3.0449999999999999,-0.088180705904960632,
,,,3.0474999999999999,-0.34430861473083496,,3.0474999999999999,-0.05750497430562973,
,,,3.0499999999999998,-0.34046214818954468,,3.0499999999999998,-0.042431555688381195,
,,,3.0525000000000002,-0.3344760537147522,,3.0525000000000002,-0.027574500069022179,
,,,3.0550000000000002,-0.32659074664115906,,3.0550000000000002,-0.012957851402461529,
,,,3.0575000000000001,-0.30654093623161316,,3.0575000000000001,0.015578269958496094,
,,,3.0600000000000001,-0.29509764909744263,,3.0600000000000001,0.029401581734418869,
,,,3.0625,-0.28317353129386902,,3.0625,0.042768120765686035,
,,,3.0649999999999999,-0.27100902795791626,,3.0649999999999999,0.055461525917053223,
,,,3.0674999999999999,-0.24610301852226257,,3.0674999999999999,0.078035593032836914,
,,,3.0699999999999998,-0.23328940570354462,,3.0699999999999998,0.087579689919948578,
,,,3.0724999999999998,-0.22001902759075165,,3.0724999999999998,0.095873676240444183,
,,,3.0750000000000002,-0.20614764094352722,,3.0750000000000002,0.10298967361450195,
,,,3.0775000000000001,-0.17628929018974304,,3.0775000000000001,0.11431276798248291,
,,,3.0800000000000001,-0.16042253375053406,,3.0800000000000001,0.11900067329406738,
,,,3.0825,-0.14414708316326141,,3.0825,0.12340009212493896,
,,,3.085,-0.12777547538280487,,3.085,0.12767931818962097,
,,,3.0874999999999999,-0.096186205744743347,,3.0874999999999999,0.1362377405166626,
,,,3.0899999999999999,-0.081617638468742371,,3.0899999999999999,0.14046888053417206,
,,,3.0924999999999998,-0.068227052688598633,,3.0924999999999998,0.1445317268371582,
,,,3.0950000000000002,-0.0561346635222435,,3.0950000000000002,0.1482580155134201,
,,,3.0975000000000001,-0.035964649170637131,,3.0975000000000001,0.15409986674785614,
,,,3.1000000000000001,-0.027670662850141525,,3.1000000000000001,0.15611927211284637,
,,,3.1025,-0.020386379212141037,,3.1025,0.15756170451641083,
,,,3.105,-0.013919472694396973,,3.105,0.15854737162590027,
,,,3.1074999999999999,-0.0027887027245014906,,3.1074999999999999,0.15998980402946472,
,,,3.1099999999999999,0.002091526985168457,,3.1099999999999999,0.16083121299743652,
,,,3.1124999999999998,0.0065871081314980984,,3.1124999999999998,0.16198515892028809,
,,,3.1150000000000002,0.010698040947318077,,3.1150000000000002,0.16345164179801941,
,,,3.1175000000000002,0.017597675323486328,,3.1175000000000002,0.16712984442710876,
,,,3.1200000000000001,0.020218094810843468,,3.1200000000000001,0.16900500655174255,
