Data Set 1:Time(s),Data Set 1:EKG(mV),Data Set 1:Heart Rate(bpm)
0,-0.15647988021373749,74.600357055664062
0.0025000000000000001,-0.15571057796478271,
0.0050000000000000001,-0.15559038519859314,
0.0074999999999999997,-0.15597502887248993,
0.01,-0.15669624507427216,
0.012500000000000001,-0.15751361846923828,
0.014999999999999999,-0.15835504233837128,
0.017500000000000002,-0.15734533965587616,
0.02,-0.15539805591106415,
0.022499999999999999,-0.15229682624340057,
0.025000000000000001,-0.14232000708580017,
0.0275,-0.13542036712169647,
0.029999999999999999,-0.12736678123474121,
0.032500000000000001,-0.11835157871246338,
0.035000000000000003,-0.098518133163452148,
0.037499999999999999,-0.088348984718322754,
0.040000000000000001,-0.078444287180900574,
0.042500000000000003,-0.069020390510559082,
0.044999999999999998,-0.051903527230024338,
0.047500000000000001,-0.044114392250776291,
0.050000000000000003,-0.036517582833766937,
0.052499999999999998,-0.028848648071289062,
0.055,-0.012501081451773643,
0.057500000000000002,-0.0036301217041909695,
0.059999999999999998,0.0055293245241045952,
0.0625,0.014640688896179199,
0.065000000000000002,0.030892094597220421,
0.067500000000000004,0.037070512771606445,
0.070000000000000007,0.041469931602478027,
0.072499999999999995,0.04399418830871582,
0.074999999999999997,0.044138431549072266,
0.077499999999999999,0.042527716606855392,
0.080000000000000002,0.040388107299804688,
0.082500000000000004,0.038176380097866058,
0.085000000000000006,0.033897161483764648,
0.087499999999999994,0.031517148017883301,
0.089999999999999997,0.028367837890982628,
0.092499999999999999,0.023848216980695724,
0.095000000000000001,0.0086065139621496201,
0.097500000000000003,-0.0025482974015176296,
0.10000000000000001,-0.015770595520734787,
0.10249999999999999,-0.030291080474853516,
0.105,-0.058658920228481293,
0.1075,-0.06964544951915741,
0.11,-0.076593160629272461,
0.1125,-0.078372165560722351,
0.115,-0.064500771462917328,
0.11749999999999999,-0.04935523122549057,
0.12,-0.030122797936201096,
0.1225,-0.0084141893312335014,
0.125,0.034882824867963791,
0.1275,0.05293726921081543,
0.13,0.066904827952384949,
0.13250000000000001,0.076256595551967621,
0.13500000000000001,0.082098446786403656,
0.13750000000000001,0.080175206065177917,
0.14000000000000001,0.076352760195732117,
0.14249999999999999,0.071304246783256531,
0.14499999999999999,0.057697296142578125,
0.14749999999999999,0.047648351639509201,
0.14999999999999999,0.03368079662322998,
0.1525,0.014328162185847759,
0.155,-0.043753784149885178,
0.1575,-0.081761881709098816,
0.16,-0.1231837272644043,
0.16250000000000001,-0.1645815372467041,
0.16500000000000001,-0.23018817603588104,
0.16750000000000001,-0.24576644599437714,
0.17000000000000001,-0.24555008113384247,
0.17249999999999999,-0.22812068462371826,
0.17499999999999999,-0.14609436690807343,
0.17749999999999999,-0.088300906121730804,
0.17999999999999999,-0.026132067665457726,
0.1825,0.034666460007429123,
0.185,0.13181428611278534,
0.1875,0.16131202876567841,
0.19,0.17652969062328339,
0.1925,0.17850100994110107,
0.19500000000000001,0.15361905097961426,
0.19750000000000001,0.13385772705078125,
0.20000000000000001,0.11378388106822968,
0.20250000000000001,0.095873676240444183,
0.20499999999999999,0.070871517062187195,
0.20749999999999999,0.063298746943473816,
0.20999999999999999,0.05738477036356926,
0.21249999999999999,0.051566958427429199,
0.215,0.035387676209211349,
0.2175,0.024112662300467491,
0.22,0.01137117575854063,
0.2225,-0.0015866756439208984,
0.22500000000000001,-0.021468203514814377,
0.22750000000000001,-0.025266608223319054,
0.23000000000000001,-0.023655891418457031,
0.23250000000000001,-0.016491811722517014,
0.23499999999999999,0.011226932518184185,
0.23749999999999999,0.028536122292280197,
0.23999999999999999,0.045388542115688324,
0.24249999999999999,0.059716701507568359,
0.245,0.074477598071098328,
0.2475,0.07351597398519516,
0.25,0.067361593246459961,
0.2525,0.057312648743391037,
0.255,0.033175945281982422,
0.25750000000000001,0.023343365639448166,
0.26000000000000001,0.017573636025190353,
0.26250000000000001,0.017068784683942795,
0.26500000000000001,0.032911501824855804,
0.26750000000000002,0.047840677201747894,
0.27000000000000002,0.065414309501647949,
0.27250000000000002,0.083685122430324554,
0.27500000000000002,0.11448105424642563,
0.27750000000000002,0.1239289864897728,
0.28000000000000003,0.12828032672405243,
0.28249999999999997,0.1274629533290863,
0.28499999999999998,0.11262993514537811,
0.28749999999999998,0.1008019894361496,
0.28999999999999998,0.087747976183891296,
0.29249999999999998,0.074621841311454773,
0.29499999999999998,0.051735244691371918,
0.29749999999999999,0.042888324707746506,
0.29999999999999999,0.035772323608398438,
0.30249999999999999,0.030050676316022873,
0.30499999999999999,0.021011432632803917,
0.3075,0.016900500282645226,
0.31,0.012813608162105083,
0.3125,0.0088709592819213867,
0.315,0.0029329459648579359,
0.3175,0.0019232432823628187,
0.32000000000000001,0.0028367838822305202,
0.32250000000000001,0.0058418512344360352,
0.32500000000000001,0.017765959724783897,
0.32750000000000001,0.025795500725507736,
0.33000000000000002,0.03442605584859848,
0.33250000000000002,0.043080650269985199,
0.33500000000000002,0.059332054108381271,
0.33750000000000002,0.067025028169155121,
0.34000000000000002,0.074862241744995117,
0.34250000000000003,0.083156228065490723,
0.34499999999999997,0.10157128423452377,
0.34749999999999998,0.11085093021392822,
0.34999999999999998,0.11892855167388916,
0.35249999999999998,0.12443383783102036,
0.35499999999999998,0.12270291894674301,
0.35749999999999998,0.11409640312194824,
0.35999999999999999,0.1007058247923851,
0.36249999999999999,0.084045730531215668,
0.36499999999999999,0.051062107086181641,
0.36749999999999999,0.040868919342756271,
0.37,0.038633149117231369,
0.3725,0.046205919235944748,
0.375,0.091666579246520996,
0.3775,0.12618879973888397,
0.38,0.16398052871227264,
0.38250000000000001,0.20040194690227509,
0.38500000000000001,0.24889171123504639,
0.38750000000000001,0.25156021118164062,
0.39000000000000001,0.23490011692047119,
0.39250000000000002,0.19672374427318573,
0.39500000000000002,0.05397101491689682,
0.39750000000000002,-0.047912798821926117,
0.40000000000000002,-0.16595184803009033,
0.40250000000000002,-0.29536208510398865,
0.40500000000000003,-0.56336605548858643,
0.40749999999999997,-0.68746328353881836,
0.40999999999999998,-0.79470813274383545,
0.41249999999999998,-0.87774419784545898,
0.41499999999999998,-0.94794255495071411,
0.41749999999999998,-0.92854183912277222,
0.41999999999999998,-0.87281584739685059,
0.42249999999999999,-0.78437072038650513,
0.42499999999999999,-0.53716182708740234,
0.42749999999999999,-0.39690932631492615,
0.42999999999999999,-0.25908491015434265,
0.4325,-0.13316056132316589,
0.435,0.054692231118679047,
0.4375,0.1090959757566452,
0.44,0.13691088557243347,
0.4425,0.14116606116294861,
0.44500000000000001,0.09938359260559082,
0.44750000000000001,0.065149866044521332,
0.45000000000000001,0.029305418953299522,
0.45250000000000001,-0.0040388107299804688,
0.45500000000000002,-0.054067175835371017,
0.45750000000000002,-0.069693528115749359,
0.46000000000000002,-0.080030962824821472,
0.46250000000000002,-0.086449787020683289,
0.46500000000000002,-0.093036890029907227,
0.46750000000000003,-0.095104381442070007,
0.46999999999999997,-0.09693145751953125,
0.47249999999999998,-0.098614297807216644,
0.47499999999999998,-0.10123471915721893,
0.47749999999999998,-0.10236462205648422,
0.47999999999999998,-0.10385513305664062,
0.48249999999999998,-0.10633131116628647,
0.48499999999999999,-0.11676490306854248,
0.48749999999999999,-0.12544354796409607,
0.48999999999999999,-0.13626179099082947,
0.49249999999999999,-0.14857053756713867,
0.495,-0.17265915870666504,
0.4975,-0.18165032565593719,
0.5,-0.18689116835594177,
0.50249999999999995,-0.18766045570373535,
0.505,-0.17585656046867371,
0.50749999999999995,-0.16499023139476776,
0.51000000000000001,-0.15277764201164246,
0.51249999999999996,-0.14104585349559784,
0.51500000000000001,-0.12563586235046387,
0.51749999999999996,-0.12424151599407196,
0.52000000000000002,-0.12751102447509766,
0.52249999999999996,-0.13496360182762146,
0.52500000000000002,-0.15722513198852539,
0.52749999999999997,-0.16854822635650635,
0.53000000000000003,-0.17751535773277283,
0.53249999999999997,-0.18253982067108154,
0.53500000000000003,-0.17732302844524384,
0.53749999999999998,-0.16705772280693054,
0.54000000000000004,-0.1529218852519989,
0.54249999999999998,-0.13662239909172058,
0.54500000000000004,-0.10604282468557358,
0.54749999999999999,-0.095969840884208679,
0.55000000000000004,-0.091570422053337097,
0.55249999999999999,-0.09368598461151123,
0.55500000000000005,-0.1169331893324852,
0.5575,-0.13587713241577148,
0.56000000000000005,-0.15744149684906006,
0.5625,-0.17963092029094696,
0.56499999999999995,-0.21924972534179688,
0.5675,-0.23458759486675262,
0.56999999999999995,-0.24651169776916504,
0.57250000000000001,-0.25547882914543152,
0.57499999999999996,-0.26793181896209717,
0.57750000000000001,-0.27319669723510742,
0.57999999999999996,-0.27860581874847412,
0.58250000000000002,-0.28423130512237549,
0.58499999999999996,-0.29425621032714844,
0.58750000000000002,-0.29692471027374268,
0.58999999999999997,-0.29675644636154175,
0.59250000000000003,-0.29305419325828552,
0.59499999999999997,-0.27456700801849365,
0.59750000000000003,-0.2607196569442749,
0.59999999999999998,-0.2452375590801239,
0.60250000000000004,-0.22951504588127136,
0.60499999999999998,-0.20280599594116211,
0.60750000000000004,-0.19391100108623505,
0.60999999999999999,-0.18869420886039734,
0.61250000000000004,-0.18698732554912567,
0.61499999999999999,-0.1916271448135376,
0.61750000000000005,-0.19597849249839783,
0.62,-0.20032982528209686,
0.62250000000000005,-0.20371954143047333,
0.625,-0.20540237426757812,
0.62749999999999995,-0.20333489775657654,
0.63,-0.19951245188713074,
0.63249999999999995,-0.19427160918712616,
0.63500000000000001,-0.18124163150787354,
0.63749999999999996,-0.17412564158439636,
0.64000000000000001,-0.16688942909240723,
0.64249999999999996,-0.15955707430839539,
0.64500000000000002,-0.14436344802379608,
0.64749999999999996,-0.1362377405166626,
0.65000000000000002,-0.12758314609527588,
0.65249999999999997,-0.11839966475963593,
0.65500000000000003,-0.098590254783630371,
0.65749999999999997,-0.088324949145317078,
0.66000000000000003,-0.07813175767660141,
0.66249999999999998,-0.068347260355949402,
0.66500000000000004,-0.051230393350124359,
0.66749999999999998,-0.044402878731489182,
0.67000000000000004,-0.038993757218122482,
0.67249999999999999,-0.035027068108320236,
0.67500000000000004,-0.031036337837576866,
0.67749999999999999,-0.030507445335388184,
0.68000000000000005,-0.030483406037092209,
0.6825,-0.030507445335388184,
0.68500000000000005,-0.029137134552001953,
0.6875,-0.026997527107596397,
0.68999999999999995,-0.023583769798278809,
0.6925,-0.018871825188398361,
0.69499999999999995,-0.0060822567902505398,
0.69750000000000001,0.0013222297420725226,
0.69999999999999996,0.0087267160415649414,
0.70250000000000001,0.015650391578674316,
0.70499999999999996,0.026108026504516602,
0.70750000000000002,0.028992891311645508,
0.70999999999999996,0.030194919556379318,
0.71250000000000002,0.029810270294547081,
0.71499999999999997,0.025747418403625488,
0.71750000000000003,0.022982757538557053,
0.71999999999999997,0.020338296890258789,
0.72250000000000003,0.018246769905090332,
0.72499999999999998,0.016443729400634766,
0.72750000000000004,0.016780298203229904,
0.72999999999999998,0.017717879265546799,
0.73250000000000004,0.019016068428754807,
0.73499999999999999,0.021612446755170822,
0.73750000000000004,0.022477906197309494,
0.73999999999999999,0.022886594757437706,
0.74250000000000005,0.022814473137259483,
0.745,0.021612446755170822,
0.74750000000000005,0.020674865692853928,
0.75,0.01966516301035881,
0.75249999999999995,0.018727581948041916,
0.755,0.017285149544477463,
0.75749999999999995,0.016900500282645226,
0.76000000000000001,0.016780298203229904,
0.76249999999999996,0.016876459121704102,
0.76500000000000001,0.017765959724783897,
0.76749999999999996,0.018463134765625,
0.77000000000000002,0.019304554909467697,
0.77249999999999996,0.020242135971784592,
0.77500000000000002,0.022405784577131271,
0.77749999999999997,0.023583769798278809,
0.78000000000000003,0.024857919663190842,
0.78249999999999997,0.026156108826398849,
0.78500000000000003,0.028872689232230186,
0.78749999999999998,0.030194919556379318,
0.79000000000000004,0.031420987099409103,
0.79249999999999998,0.032550893723964691,
0.79500000000000004,0.034377973526716232,
0.79749999999999999,0.035099189728498459,
0.80000000000000004,0.035748284310102463,
0.80249999999999999,0.036349296569824219,
0.80500000000000005,0.037623446434736252,
0.8075,0.038344662636518478,
0.81000000000000005,0.03908991813659668,
0.8125,0.039835177361965179,
0.81499999999999995,0.041109323501586914,
0.8175,0.04154205322265625,
0.81999999999999995,0.041854582726955414,
0.82250000000000001,0.042022865265607834,
0.82499999999999996,0.042167108505964279,
0.82750000000000001,0.042263269424438477,
0.82999999999999996,0.042503677308559418,
0.83250000000000002,0.042888324707746506,
0.83499999999999996,0.0438259057700634,
0.83750000000000002,0.044162474572658539,
0.83999999999999997,0.044186513870954514,
0.84250000000000003,0.04365762323141098,
0.84499999999999997,0.040364068001508713,
0.84750000000000003,0.037479203194379807,
0.84999999999999998,0.033825039863586426,
0.85250000000000004,0.02969006821513176,
0.85499999999999998,0.021107595413923264,
0.85750000000000004,0.017405351623892784,
0.85999999999999999,0.014472405426204205,
0.86250000000000004,0.012525121681392193,
0.86499999999999999,0.011515418998897076,
0.86750000000000005,0.012188553810119629,
0.87,0.013270378112792969,
0.87250000000000005,0.014424324035644531,
0.875,0.015938878059387207,
0.87749999999999995,0.015914838761091232,
0.88,0.015241703018546104,
0.88249999999999995,0.013943513855338097,
0.88500000000000001,0.0097845001146197319,
0.88749999999999996,0.0071160001680254936,
0.89000000000000001,0.0042070946656167507,
0.89249999999999996,0.0011299054604023695,
0.89500000000000002,-0.0049523515626788139,
0.89749999999999996,-0.0076689324341714382,
0.90000000000000002,-0.0099527835845947266,
0.90249999999999997,-0.011539459228515625,
0.90500000000000003,-0.011827945709228516,
0.90749999999999997,-0.010121067985892296,
0.91000000000000003,-0.0070679187774658203,
0.91249999999999998,-0.0026204190216958523,
0.91500000000000004,0.0099527835845947266,
0.91749999999999998,0.017645757645368576,
0.92000000000000004,0.025843581184744835,
0.92249999999999999,0.034233730286359787,
0.92500000000000004,0.050268769264221191,
0.92749999999999999,0.057408809661865234,
0.93000000000000005,0.063683390617370605,
0.9325,0.068996354937553406,
0.93500000000000005,0.076617203652858734,
0.9375,0.07887701690196991,
0.93999999999999995,0.080054998397827148,
0.9425,0.080175206065177917,
0.94499999999999995,0.077242255210876465,
0.94750000000000001,0.074453555047512054,
0.94999999999999996,0.071087881922721863,
0.95250000000000001,0.067650079727172852,
0.95499999999999996,0.063178539276123047,
0.95750000000000002,0.063851676881313324,
0.95999999999999996,0.067602001130580902,
0.96250000000000002,0.07522284984588623,
0.96499999999999997,0.10359068959951401,
0.96750000000000003,0.12414535135030746,
0.96999999999999997,0.14794549345970154,
0.97250000000000003,0.17352461814880371,
0.97499999999999998,0.22158166766166687,
0.97750000000000004,0.23881873488426208,
0.97999999999999998,0.24764160811901093,
0.98250000000000004,0.24511735141277313,
0.98499999999999999,0.19638717174530029,
0.98750000000000004,0.1469598263502121,
0.98999999999999999,0.080319449305534363,
0.99250000000000005,-0.0023319325409829617,
0.995,-0.20403206348419189,
0.99750000000000005,-0.31394541263580322,
1,-0.42195957899093628,98.003631591796875
1.0024999999999999,-0.5213431715965271,
1.0049999999999999,-0.66762983798980713,
1.0075000000000001,-0.70316177606582642,
1.01,-0.70854687690734863,
1.0125,-0.68246287107467651,
1.0149999999999999,-0.54237866401672363,
1.0175000000000001,-0.43715319037437439,
1.02,-0.31733512878417969,
1.0225,-0.19088189303874969,
1.0249999999999999,0.050052404403686523,
1.0275000000000001,0.15075823664665222,
1.03,0.23177485167980194,
1.0325,0.2907463014125824,
1.0349999999999999,0.34377974271774292,
1.0375000000000001,0.34284216165542603,
1.04,0.32885056734085083,
1.0425,0.30644476413726807,
1.0449999999999999,0.25309881567955017,
1.0475000000000001,0.22860150039196014,
1.05,0.20809492468833923,
1.0525,0.19210796058177948,
1.0549999999999999,0.17186582088470459,
1.0575000000000001,0.1654229611158371,
1.0600000000000001,0.15977343916893005,
1.0625,0.1538594663143158,
1.0649999999999999,0.1390264481306076,
1.0674999999999999,0.13001124560832977,
1.0700000000000001,0.12044310569763184,
1.0725,0.11092305183410645,
1.075,0.094647608697414398,
1.0774999999999999,0.088805757462978363,
1.0800000000000001,0.084790989756584167,
1.0825,0.082459054887294769,
1.085,0.081497430801391602,
1.0874999999999999,0.081906124949455261,
1.0900000000000001,0.082242690026760101,
1.0925,0.082146525382995605,
1.095,0.079670354723930359,
1.0974999999999999,0.077170133590698242,
1.1000000000000001,0.073972746729850769,
1.1025,0.070246458053588867,
1.105,0.06212075799703598,
1.1074999999999999,0.058154068887233734,
1.1100000000000001,0.054451823234558105,
1.1125,0.051158271729946136,
1.115,0.045965515077114105,
1.1174999999999999,0.044042270630598068,
1.1200000000000001,0.042479634284973145,
1.1225000000000001,0.041157405823469162,
1.125,0.038512945175170898,
1.1274999999999999,0.036782026290893555,
1.1299999999999999,0.034546256065368652,
1.1325000000000001,0.031685434281826019,
1.135,0.023848216980695724,
1.1375,0.019016068428754807,
1.1399999999999999,0.013727148994803429,
1.1425000000000001,0.0081978244706988335,
1.145,-0.0027646622620522976,
1.1475,-0.0078612565994262695,
1.1499999999999999,-0.012573203071951866,
1.1525000000000001,-0.016900500282645226,
1.155,-0.024569433182477951,
1.1575,-0.028199553489685059,
1.1599999999999999,-0.031853716820478439,
1.1625000000000001,-0.035748284310102463,
1.165,-0.044523082673549652,
1.1675,-0.04952351376414299,
1.1699999999999999,-0.054860513657331467,
1.1725000000000001,-0.060486000031232834,
1.175,-0.071905255317687988,
1.1775,-0.077410541474819183,
1.1799999999999999,-0.082603298127651215,
1.1825000000000001,-0.087387368083000183,
1.1850000000000001,-0.095537111163139343,
1.1875,-0.098902784287929535,
1.1899999999999999,-0.10178764909505844,
1.1924999999999999,-0.10423978418111801,
1.1950000000000001,-0.10789394378662109,
1.1975,-0.10916809737682343,
1.2,-0.11010567843914032,
1.2024999999999999,-0.11075477302074432,
1.2050000000000001,-0.11159618943929672,
1.2075,-0.11195679754018784,
1.21,-0.1123654842376709,
1.2124999999999999,-0.11279821395874023,
1.2150000000000001,-0.11335115134716034,
1.2175,-0.1131107434630394,
1.22,-0.11222124099731445,
1.2224999999999999,-0.11041820049285889,
1.2250000000000001,-0.10335028171539307,
1.2275,-0.097941160202026367,
1.23,-0.091354057192802429,
1.2324999999999999,-0.083733201026916504,
1.2350000000000001,-0.06644805520772934,
1.2375,-0.057264566421508789,
1.24,-0.048008959740400314,
1.2424999999999999,-0.038873553276062012,
1.2450000000000001,-0.021227797493338585,
1.2475000000000001,-0.012717446312308311,
1.25,-0.004399418830871582,
1.2524999999999999,0.0037743649445474148,
1.2549999999999999,0.019520919770002365,
1.2575000000000001,0.027021568268537521,
1.26,0.034185647964477539,
1.2625,0.040917001664638519,
1.2649999999999999,0.052913229912519455,
1.2675000000000001,0.058178108185529709,
1.27,0.062986217439174652,
1.2725,0.067457757890224457,
1.2749999999999999,0.075703665614128113,
1.2775000000000001,0.079598233103752136,
1.28,0.083372592926025391,
1.2825,0.086954638361930847,
1.2849999999999999,0.093229219317436218,
1.2875000000000001,0.095705389976501465,
1.29,0.09767671674489975,
1.2925,0.099119149148464203,
1.2949999999999999,0.10053753852844238,
1.2975000000000001,0.10072986781597137,
1.3,0.10072986781597137,
1.3025,0.10065774619579315,
1.3049999999999999,0.10046541690826416,
1.3075000000000001,0.10041733831167221,
1.3100000000000001,0.10041733831167221,
1.3125,0.10041733831167221,
1.3149999999999999,0.10060966014862061,
1.3174999999999999,0.10085006803274155,
1.3200000000000001,0.10118663311004639,
1.3225,0.10171552747488022,
1.325,0.10308583825826645,
1.3274999999999999,0.10383109748363495,
1.3300000000000001,0.10448019206523895,
1.3325,0.10491292178630829,
1.335,0.10488887876272202,
1.3374999999999999,0.10433594882488251,
1.3400000000000001,0.10342240333557129,
1.3425,0.10226845741271973,
1.345,0.099599957466125488,
1.3474999999999999,0.098277732729911804,
1.3500000000000001,0.097075700759887695,
1.3525,0.096041962504386902,
1.355,0.094407200813293457,
1.3574999999999999,0.093710027635097504,
1.3600000000000001,0.092964768409729004,
1.3625,0.092123351991176605,
1.365,0.089911624789237976,
1.3674999999999999,0.088517270982265472,
1.3700000000000001,0.086978673934936523,
1.3725000000000001,0.085367962718009949,
1.375,0.082362890243530273,
1.3774999999999999,0.081112787127494812,
1.3799999999999999,0.080103084444999695,
1.3825000000000001,0.079333782196044922,
1.385,0.078372165560722351,
1.3875,0.078035593032836914,
1.3899999999999999,0.077699027955532074,
1.3925000000000001,0.077314376831054688,
1.395,0.076424881815910339,
1.3975,0.07596810907125473,
1.3999999999999999,0.075559422373771667,
1.4025000000000001,0.07522284984588623,
1.405,0.074717998504638672,
1.4075,0.074429512023925781,
1.4099999999999999,0.073996782302856445,
1.4125000000000001,0.073323652148246765,
1.415,0.070823431015014648,
1.4175,0.06890019029378891,
1.4199999999999999,0.066544219851493835,
1.4225000000000001,0.063803598284721375,
1.425,0.057601135224103928,
1.4275,0.054403744637966156,
1.4299999999999999,0.051350593566894531,
1.4325000000000001,0.048634015023708344,
1.4350000000000001,0.044667325913906097,
1.4375,0.043681662529706955,
1.4399999999999999,0.043465297669172287,
1.4424999999999999,0.044018231332302094,
1.4450000000000001,0.047383904457092285,
1.4475,0.049908161163330078,
1.45,0.05276898667216301,
1.4524999999999999,0.055701933801174164,
1.4550000000000001,0.060582160949707031,
1.4575,0.061928432434797287,
1.46,0.062240958213806152,
1.4624999999999999,0.061303377151489258,
1.4650000000000001,0.055629812180995941,
1.4675,0.051110189408063889,
1.47,0.045845311135053635,
1.4724999999999999,0.040243864059448242,
1.4750000000000001,0.029786229133605957,
1.4775,0.025867622345685959,
1.48,0.023247202858328819,
1.4824999999999999,0.022117298096418381,
1.4850000000000001,0.024425189942121506,
1.4875,0.027478337287902832,
1.49,0.031396947801113129,
1.4924999999999999,0.035796366631984711,
1.4950000000000001,0.044667325913906097,
1.4975000000000001,0.04860997200012207,
1.5,0.051999688148498535,
1.5024999999999999,0.054836474359035492,
1.5049999999999999,0.059139728546142578,
1.5075000000000001,0.060942769050598145,
1.51,0.062841974198818207,
1.5125,0.064981579780578613,
1.5149999999999999,0.070631109178066254,
1.5175000000000001,0.074116989970207214,
1.52,0.077891349792480469,
1.5225,0.081689760088920593,
1.5249999999999999,0.087723933160305023,
1.5275000000000001,0.089262530207633972,
1.53,0.089406773447990417,
1.5325,0.088156662881374359,
1.5349999999999999,0.082555219531059265,
1.5375000000000001,0.079453989863395691,
1.54,0.077362462878227234,
1.5425,0.07738649845123291,
1.5449999999999999,0.087603732943534851,
1.5475000000000001,0.099143192172050476,
1.55,0.11510610580444336,
1.5525,0.13493955135345459,
1.5549999999999999,0.1807127445936203,
1.5575000000000001,0.20249347388744354,
1.5600000000000001,0.22001902759075165,
1.5625,0.23038050532341003,
1.5649999999999999,0.21821598708629608,
1.5674999999999999,0.19095401465892792,
1.5700000000000001,0.14753679931163788,
1.5725,0.087555646896362305,
1.575,-0.077699027955532074,
1.5774999999999999,-0.17775575816631317,
1.5800000000000001,-0.28389474749565125,
1.5825,-0.39075493812561035,
1.585,-0.58192533254623413,
1.5874999999999999,-0.65378248691558838,
1.5900000000000001,-0.70241653919219971,
1.5925,-0.72369241714477539,
1.595,-0.67678928375244141,
1.5974999999999999,-0.61019700765609741,
1.6000000000000001,-0.51944398880004883,
1.6025,-0.41037201881408691,
1.605,-0.16640862822532654,
1.6074999999999999,-0.046903096139431,
1.6100000000000001,0.061519742012023926,
1.6125,0.15342673659324646,
1.615,0.27543246746063232,
1.6174999999999999,0.30442535877227783,
1.6200000000000001,0.31440219283103943,
1.6225000000000001,0.30882477760314941,
1.625,0.26778757572174072,
1.6274999999999999,0.24071793258190155,
1.6299999999999999,0.2139127254486084,
1.6325000000000001,0.18975198268890381,
1.635,0.15395562350749969,
1.6375,0.14241616427898407,
1.6399999999999999,0.13426642119884491,
1.6425000000000001,0.12837648391723633,
1.645,0.11945744603872299,
1.6475,0.11488974094390869,
1.6499999999999999,0.10967294871807098,
1.6525000000000001,0.10383109748363495,
1.655,0.090969406068325043,
1.6575,0.084622703492641449,
1.6599999999999999,0.078756809234619141,
1.6625000000000001,0.073564052581787109,
1.665,0.065558552742004395,
1.6675,0.062649652361869812,
1.6699999999999999,0.060245595872402191,
1.6725000000000001,0.058178108185529709,
1.675,0.054427783936262131,
1.6775,0.052504539489746094,
1.6799999999999999,0.050461094826459885,
1.6825000000000001,0.04827340692281723,
1.6850000000000001,0.04365762323141098,
1.6875,0.041277609765529633,
1.6899999999999999,0.038945674896240234,
1.6924999999999999,0.036685865372419357,
1.6950000000000001,0.032526850700378418,
1.6975,0.030627649277448654,
1.7,0.028800567612051964,
1.7024999999999999,0.026973485946655273,
1.7050000000000001,0.022958716377615929,
1.7075,0.020578702911734581,
1.71,0.01783808134496212,
1.7124999999999999,0.014736851677298546,
1.7150000000000001,0.0073804459534585476,
1.7175,0.0032695136032998562,
1.72,-0.0010097026824951172,
1.7224999999999999,-0.0053850812837481499,
1.7250000000000001,-0.014087757095694542,
1.7275,-0.018318891525268555,
1.73,-0.02245386503636837,
1.7324999999999999,-0.02644459530711174,
1.7350000000000001,-0.03413756936788559,
1.7375,-0.037815771996974945,
1.74,-0.041421853005886078,
1.7424999999999999,-0.044979851692914963,
1.7450000000000001,-0.052192013710737228,
1.7475000000000001,-0.055966377258300781,
1.75,-0.059957109391689301,
1.7524999999999999,-0.064260363578796387,
1.7549999999999999,-0.073972746729850769,
1.7575000000000001,-0.079405903816223145,
1.76,-0.085151597857475281,
1.7625,-0.091089606285095215,
1.7649999999999999,-0.10306179523468018,
1.7675000000000001,-0.10873536765575409,
1.77,-0.11400024592876434,
1.7725,-0.11868815124034882,
1.7749999999999999,-0.1260685920715332,
1.7775000000000001,-0.12866497039794922,
1.78,-0.13061225414276123,
1.7825,-0.13193449378013611,
1.7849999999999999,-0.13318459689617157,
1.7875000000000001,-0.13325671851634979,
1.79,-0.13304035365581512,
1.7925,-0.13251146674156189,
1.7949999999999999,-0.13037185370922089,
1.7975000000000001,-0.128592848777771,
1.8,-0.12623688578605652,
1.8025,-0.12320777028799057,
1.8049999999999999,-0.11505802720785141,
1.8075000000000001,-0.10991334915161133,
1.8100000000000001,-0.10409554094076157,
1.8125,-0.09767671674489975,
1.8149999999999999,-0.083228349685668945,
1.8174999999999999,-0.075294971466064453,
1.8200000000000001,-0.067025028169155121,
1.8225,-0.058442555367946625,
1.825,-0.040580432862043381,
1.8274999999999999,-0.031445026397705078,
1.8300000000000001,-0.022261541336774826,
1.8325,-0.013102094642817974,
1.835,0.0049283108673989773,
1.8374999999999999,0.013606945984065533,
1.8400000000000001,0.021924972534179688,
1.8425,0.029786229133605957,
1.845,0.04353741928935051,
1.8474999999999999,0.049235027283430099,
1.8500000000000001,0.054115258157253265,
1.8525,0.058178108185529709,
1.855,0.064188241958618164,
1.8574999999999999,0.06644805520772934,
1.8600000000000001,0.068419381976127625,
1.8625,0.070294544100761414,
1.865,0.074044868350028992,
1.8674999999999999,0.075992152094841003,
1.8700000000000001,0.077939435839653015,
1.8725000000000001,0.079862676560878754,
1.875,0.083228349685668945,
1.8774999999999999,0.084598660469055176,
1.8799999999999999,0.085728570818901062,
1.8825000000000001,0.086666151881217957,
1.885,0.088012419641017914,
1.8875,0.088517270982265472,
1.8899999999999999,0.088950000703334808,
1.8925000000000001,0.089334651827812195,
1.895,0.089959703385829926,
1.8975,0.090200111269950867,
1.8999999999999999,0.090392433106899261,
1.9025000000000001,0.090512633323669434,
1.905,0.09056071937084198,
1.9075,0.090440511703491211,
1.9099999999999999,0.090224146842956543,
1.9125000000000001,0.08981546014547348,
1.915,0.08844514936208725,
1.9175,0.087411403656005859,
1.9199999999999999,0.086161300539970398,
1.9225000000000001,0.084718868136405945,
1.925,0.08166571706533432,
1.9275,0.08029540628194809,
1.9299999999999999,0.07921358197927475,
1.9325000000000001,0.078516408801078796,
1.9350000000000001,0.078564487397670746,
1.9375,0.07921358197927475,
1.9399999999999999,0.080103084444999695,
1.9424999999999999,0.081016622483730316,
1.9450000000000001,0.081954203546047211,
1.9475,0.081545516848564148,
1.95,0.080463692545890808,
1.9524999999999999,0.078660652041435242,
1.9550000000000001,0.073564052581787109,
1.9575,0.070751309394836426,
1.96,0.068130895495414734,
1.9624999999999999,0.065871082246303558,
1.9650000000000001,0.063058339059352875,
1.9675,0.062529444694519043,
1.97,0.062433283776044846,
1.9724999999999999,0.062649652361869812,
1.9750000000000001,0.06325066089630127,
1.9775,0.063346825540065765,
1.98,0.063226625323295593,
1.9824999999999999,0.062817931175231934,
1.9850000000000001,0.06137549877166748,
1.9875,0.060437917709350586,
1.99,0.059452258050441742,
1.9924999999999999,0.058490633964538574,
1.9950000000000001,0.056639514863491058,
1.9975000000000001,0.055725973099470139,
2,0.054764352738857269,62.370059967041016
2.0024999999999999,0.053658485412597656,
2.0049999999999999,0.050917863845825195,
2.0074999999999998,0.049210987985134125,
2.0099999999999998,0.047287743538618088,
2.0125000000000002,0.045220255851745605,
2.0150000000000001,0.040965080261230469,
2.0175000000000001,0.038969717919826508,
2.02,0.037166677415370941,
2.0225,0.03555595874786377,
2.0249999999999999,0.033031702041625977,
2.0274999999999999,0.032046042382717133,
2.0299999999999998,0.031180581077933311,
2.0325000000000002,0.030507445335388184,
2.0350000000000001,0.029714107513427734,
2.0375000000000001,0.029762189835309982,
2.04,0.030194919556379318,
2.0425,0.031036337837576866,
2.0449999999999999,0.03368079662322998,
2.0474999999999999,0.035195350646972656,
2.0499999999999998,0.036541622132062912,
2.0525000000000002,0.037431120872497559,
2.0550000000000002,0.036709904670715332,
2.0575000000000001,0.034738581627607346,
2.0600000000000001,0.031589269638061523,
2.0625,0.027334094047546387,
2.0649999999999999,0.016563933342695236,
2.0674999999999999,0.0107701625674963,
2.0699999999999998,0.0052889189682900906,
2.0724999999999998,0.00055293244076892734,
2.0750000000000002,-0.0052889189682900906,
2.0775000000000001,-0.0059380135498940945,
2.0800000000000001,-0.0050004324875771999,
2.0825,-0.0025723378639668226,
2.085,0.0058418512344360352,
2.0874999999999999,0.011275013908743858,
2.0899999999999999,0.017116865143179893,
2.0924999999999998,0.023102959617972374,
2.0950000000000002,0.034834742546081543,
2.0975000000000001,0.040340028703212738,
2.1000000000000001,0.045532785356044769,
2.1025,0.050388973206281662,
2.105,0.058779120445251465,
2.1074999999999999,0.062144797295331955,
2.1099999999999999,0.064765214920043945,
2.1124999999999998,0.066496133804321289,
2.1150000000000002,0.06673654168844223,
2.1175000000000002,0.065101787447929382,
2.1200000000000001,0.062409244477748871,
2.1225000000000001,0.058947406709194183,
2.125,0.051759283989667892,
2.1274999999999999,0.049427352845668793,
2.1299999999999999,0.049138866364955902,
2.1324999999999998,0.051735244691371918,
2.1349999999999998,0.06856362521648407,
2.1375000000000002,0.083516836166381836,
2.1400000000000001,0.10258098691701889,
2.1425000000000001,0.12493868917226791,
2.145,0.17340442538261414,
2.1475,0.19518515467643738,
2.1499999999999999,0.21184524893760681,
2.1524999999999999,0.22045175731182098,
2.1549999999999998,0.20261368155479431,
2.1575000000000002,0.17152926325798035,
2.1600000000000001,0.12364050000905991,
2.1625000000000001,0.058562755584716797,
2.165,-0.11902471631765366,
2.1675,-0.2262214869260788,
2.1699999999999999,-0.33995729684829712,
2.1724999999999999,-0.45460662245750427,
2.1749999999999998,-0.66039365530014038,
2.1775000000000002,-0.73809266090393066,
2.1800000000000002,-0.79098188877105713,
2.1825000000000001,-0.81458967924118042,
2.1850000000000001,-0.76614797115325928,
2.1875,-0.69582939147949219,
2.1899999999999999,-0.59985959529876709,
2.1924999999999999,-0.48448902368545532,
2.1949999999999998,-0.22679845988750458,
2.1974999999999998,-0.10087411105632782,
2.2000000000000002,0.01322229765355587,
2.2025000000000001,0.10979314893484116,
2.2050000000000001,0.23795327544212341,
2.2075,0.26860496401786804,
2.21,0.27959150075912476,
2.2124999999999999,0.27459105849266052,
2.2149999999999999,0.23444335162639618,
2.2174999999999998,0.20804683864116669,
2.2200000000000002,0.18217921257019043,
2.2225000000000001,0.15922050178050995,
2.2250000000000001,0.1261647641658783,
2.2275,0.11597156524658203,
2.23,0.10887961089611053,
2.2324999999999999,0.10380705446004868,
2.2349999999999999,0.095537111163139343,
2.2374999999999998,0.09094536304473877,
2.2400000000000002,0.085632406175136566,
2.2425000000000002,0.079718433320522308,
2.2450000000000001,0.067289471626281738,
2.2475000000000001,0.061495702713727951,
2.25,0.056447189301252365,
2.2524999999999999,0.052288174629211426,
2.2549999999999999,0.046758852899074554,
2.2574999999999998,0.045100055634975433,
2.2599999999999998,0.043898027390241623,
2.2625000000000002,0.042840242385864258,
2.2650000000000001,0.040315985679626465,
2.2675000000000001,0.038561027497053146,
2.27,0.036397378891706467,
2.2725,0.033897161483764648,
2.2749999999999999,0.028319757431745529,
2.2774999999999999,0.02553105354309082,
2.2799999999999998,0.02291063591837883,
2.2825000000000002,0.020554661750793457,
2.2850000000000001,0.016660094261169434,
2.2875000000000001,0.014977256767451763,
2.29,0.013318459503352642,
2.2925,0.011563500389456749,
2.2949999999999999,0.0073083243332803249,
2.2974999999999999,0.0046638650819659233,
2.2999999999999998,0.0016347568016499281,
2.3025000000000002,-0.0017068784218281507,
2.3050000000000002,-0.0091834869235754013,
2.3075000000000001,-0.013078054413199425,
2.3100000000000001,-0.016996663063764572,
2.3125,-0.020867189392447472,
2.3149999999999999,-0.028175514191389084,
2.3174999999999999,-0.031661391258239746,
2.3199999999999998,-0.035123229026794434,
2.3224999999999998,-0.038609109818935394,
2.3250000000000002,-0.046181879937648773,
2.3275000000000001,-0.050413012504577637,
2.3300000000000001,-0.055028796195983887,
2.3325,-0.06000518798828125,
2.335,-0.07072727382183075,
2.3374999999999999,-0.076280638575553894,
2.3399999999999999,-0.081834003329277039,
2.3424999999999998,-0.087267160415649414,
2.3450000000000002,-0.097700759768486023,
2.3475000000000001,-0.10272523015737534,
2.3500000000000001,-0.1077016219496727,
2.3525,-0.11265397071838379,
2.355,-0.12260675430297852,
2.3574999999999999,-0.12753507494926453,
2.3599999999999999,-0.1323191374540329,
2.3624999999999998,-0.1367906779050827,
2.3650000000000002,-0.14424324035644531,
2.3675000000000002,-0.1469598263502121,
2.3700000000000001,-0.14885902404785156,
2.3725000000000001,-0.1499408483505249,
2.375,-0.14989277720451355,
2.3774999999999999,-0.14895519614219666,
2.3799999999999999,-0.14765700697898865,
2.3824999999999998,-0.14609436690807343,
2.3849999999999998,-0.14260849356651306,
2.3875000000000002,-0.14075736701488495,
2.3900000000000001,-0.13876199722290039,
2.3925000000000001,-0.13647815585136414,
2.395,-0.13046801090240479,
2.3975,-0.12645325064659119,
2.3999999999999999,-0.1215970516204834,
2.4024999999999999,-0.11587540805339813,
2.4049999999999998,-0.10202805697917938,
2.4075000000000002,-0.094070635735988617,
2.4100000000000001,-0.085584327578544617,
2.4125000000000001,-0.076665282249450684,
2.415,-0.057913661003112793,
2.4175,-0.048177242279052734,
2.4199999999999999,-0.038224458694458008,
2.4224999999999999,-0.028127431869506836,
2.4249999999999998,-0.0078131761401891708,
2.4275000000000002,0.0021876893006265163,
2.4300000000000002,0.01185198687016964,
2.4325000000000001,0.021035473793745041,
2.4350000000000001,0.037238799035549164,
2.4375,0.044042270630598068,
2.4399999999999999,0.049908161163330078,
2.4424999999999999,0.054788392037153244,
2.4449999999999998,0.061928432434797287,
2.4474999999999998,0.064404606819152832,
2.4500000000000002,0.066351890563964844,
2.4525000000000001,0.06786644458770752,
2.4550000000000001,0.070222422480583191,
2.4575,0.071232125163078308,
2.46,0.072169706225395203,
2.4624999999999999,0.073059201240539551,
2.4649999999999999,0.074501633644104004,
2.4674999999999998,0.075006484985351562,
2.4700000000000002,0.075319014489650726,
2.4725000000000001,0.075439214706420898,
2.4750000000000001,0.075198814272880554,
2.4775,0.07493436336517334,
2.48,0.0745977982878685,
2.4824999999999999,0.074237190186977386,
2.4849999999999999,0.073491930961608887,
2.4874999999999998,0.073131322860717773,
2.4900000000000002,0.072818800806999207,
2.4925000000000002,0.072530314326286316,
2.4950000000000001,0.072241827845573425,
2.4975000000000001,0.072265863418579102,
2.5,0.07243414968252182,
2.5024999999999999,0.072674557566642761,
2.5049999999999999,0.073203444480895996,
2.5074999999999998,0.073275566101074219,
2.5099999999999998,0.073107287287712097,
2.5125000000000002,0.072626471519470215,
2.5150000000000001,0.070655152201652527,
2.5175000000000001,0.069284841418266296,
2.52,0.067794322967529297,
2.5225,0.066303811967372894,
2.5249999999999999,0.063923798501491547,
2.5274999999999999,0.06320258229970932,
2.5299999999999998,0.062817931175231934,
2.5325000000000002,0.062721773982048035,
2.5350000000000001,0.063010260462760925,
2.5375000000000001,0.063130460679531097,
2.54,0.063034296035766602,
2.5425,0.062625609338283539,
2.5449999999999999,0.06075044721364975,
2.5474999999999999,0.059308014810085297,
2.5499999999999998,0.057625174522399902,
2.5525000000000002,0.055822134017944336,
2.5550000000000002,0.052312217652797699,
2.5575000000000001,0.05077362060546875,
2.5600000000000001,0.04952351376414299,
2.5625,0.048537850379943848,
2.5649999999999999,0.047600269317626953,
2.5674999999999999,0.047624312341213226,
2.5699999999999998,0.048008959740400314,
2.5724999999999998,0.048706136643886566,
2.5750000000000002,0.050869785249233246,
2.5775000000000001,0.052167974412441254,
2.5800000000000001,0.053418081253767014,
2.5825,0.054451823234558105,
2.585,0.055317282676696777,
2.5874999999999999,0.054884552955627441,
2.5899999999999999,0.053874850273132324,
2.5924999999999998,0.052312217652797699,
2.5950000000000002,0.048105120658874512,
2.5975000000000001,0.045797228813171387,
2.6000000000000001,0.043609540909528732,
2.6025,0.041638217866420746,
2.605,0.038512945175170898,
2.6074999999999999,0.037286877632141113,
2.6099999999999999,0.036181014031171799,
2.6124999999999998,0.035099189728498459,
2.6150000000000002,0.032671093940734863,
2.6175000000000002,0.031252704560756683,
2.6200000000000001,0.029714107513427734,
2.6225000000000001,0.028103392571210861,
2.625,0.024954080581665039,
2.6274999999999999,0.023607810959219933,
2.6299999999999999,0.022501945495605469,
2.6324999999999998,0.021780729293823242,
2.6349999999999998,0.021732648834586143,
2.6375000000000002,0.022477906197309494,
2.6400000000000001,0.023776095360517502,
2.6425000000000001,0.025507014244794846,
2.645,0.02969006821513176,
2.6475,0.031685434281826019,
2.6499999999999999,0.033248066902160645,
2.6524999999999999,0.03413756936788559,
2.6549999999999998,0.032791297882795334,
2.6575000000000002,0.030291080474853516,
2.6600000000000001,0.026516716927289963,
2.6625000000000001,0.021564364433288574,
2.665,0.0091594457626342773,
2.6675,0.0024280946236103773,
2.6699999999999999,-0.0040628514252603054,
2.6724999999999999,-0.0098806619644165039,
2.6749999999999998,-0.017958283424377441,
2.6775000000000002,-0.019641121849417686,
2.6800000000000002,-0.019617080688476562,
2.6825000000000001,-0.017958283424377441,
2.6850000000000001,-0.010698040947318077,
2.6875,-0.0057697296142578125,
2.6899999999999999,-0.00043272972106933594,
2.6924999999999999,0.0049283108673989773,
2.6949999999999998,0.014784932136535645,
2.6974999999999998,0.019088190048933029,
2.7000000000000002,0.022982757538557053,
2.7025000000000001,0.026588838547468185,
2.7050000000000001,0.033488474786281586,
2.7075,0.037022434175014496,
2.71,0.040628515183925629,
2.7124999999999999,0.044234596192836761,
2.7149999999999999,0.050653420388698578,
2.7174999999999998,0.052865147590637207,
2.7200000000000002,0.05397101491689682,
2.7225000000000001,0.053778689354658127,
2.7250000000000001,0.049210987985134125,
2.7275,0.045364499092102051,
2.73,0.041229527443647385,
2.7324999999999999,0.037695568054914474,
2.7349999999999999,0.036565661430358887,
2.7374999999999998,0.041037201881408691,
2.7400000000000002,0.049980282783508301,
2.7425000000000002,0.063707433640956879,
2.7450000000000001,0.10438402742147446,
2.7475000000000001,0.12929002940654755,
2.75,0.15491724014282227,
2.7524999999999999,0.17893373966217041,
2.7549999999999999,0.21117210388183594,
2.7574999999999998,0.21360020339488983,
2.7599999999999998,0.20328681170940399,
2.7625000000000002,0.17790000140666962,
2.7650000000000001,0.076160430908203125,
2.7675000000000001,-0.00084141892148181796,
2.77,-0.093830227851867676,
2.7725,-0.20008942484855652,
2.7749999999999999,-0.4350857138633728,
2.7774999999999999,-0.5523073673248291,
2.7799999999999998,-0.66034555435180664,
2.7825000000000002,-0.7521323561668396,
2.7850000000000001,-0.86178123950958252,
2.7875000000000001,-0.87029159069061279,
2.79,-0.84504902362823486,
2.7925,-0.78687095642089844,
2.7949999999999999,-0.58750271797180176,
2.7974999999999999,-0.45941472053527832,
2.7999999999999998,-0.32348951697349548,
2.8025000000000002,-0.18857400119304657,
2.8050000000000002,0.046590566635131836,
2.8075000000000001,0.13498763740062714,
2.8100000000000001,0.19960860908031464,
2.8125,0.24016499519348145,
2.8149999999999999,0.25812327861785889,
2.8174999999999999,0.24357876181602478,
2.8199999999999998,0.21982669830322266,
2.8224999999999998,0.19165119528770447,
2.8250000000000002,0.13710319995880127,
2.8275000000000001,0.11565904319286346,
2.8300000000000001,0.099479757249355316,
2.8325,0.088421106338500977,
2.835,0.07808367908000946,
2.8374999999999999,0.076400838792324066,
2.8399999999999999,0.075559422373771667,
2.8424999999999998,0.074669919908046722,
2.8450000000000002,0.071039795875549316,
2.8475000000000001,0.068106852471828461,
2.8500000000000001,0.0646209716796875,
2.8525,0.060822568833827972,
2.855,0.053321920335292816,
2.8574999999999999,0.049932204186916351,
2.8599999999999999,0.046855013817548752,
2.8624999999999998,0.044114392250776291,
2.8650000000000002,0.039354365319013596,
2.8675000000000002,0.037238799035549164,
2.8700000000000001,0.035219393670558929,
2.8725000000000001,0.033296149224042892,
2.875,0.02952178381383419,
2.8774999999999999,0.027646621689200401,
2.8799999999999999,0.02569933794438839,
2.8824999999999998,0.023583769798278809,
2.8849999999999998,0.018703540787100792,
2.8875000000000002,0.01584271714091301,
2.8900000000000001,0.012669364921748638,
2.8925000000000001,0.0092796487733721733,
2.895,0.002091526985168457,
2.8975,-0.001466472982428968,
2.8999999999999999,-0.0048561892472207546,
2.9024999999999999,-0.0080535812303423882,
2.9049999999999998,-0.013775229454040527,
2.9075000000000002,-0.016395648941397667,
2.9100000000000001,-0.01891990564763546,
2.9125000000000001,-0.021420121192932129,
2.915,-0.026540756225585938,
2.9175,-0.029185216873884201,
2.9199999999999999,-0.031877756118774414,
2.9224999999999999,-0.034642420709133148,
2.9249999999999998,-0.040436189621686935,
2.9275000000000002,-0.043561458587646484,
2.9300000000000002,-0.046927135437726974,
2.9325000000000001,-0.05060533806681633,
2.9350000000000001,-0.059235893189907074,
2.9375,-0.064212284982204437,
2.9399999999999999,-0.069621406495571136,
2.9424999999999999,-0.075415179133415222,
2.9449999999999998,-0.087723933160305023,
2.9474999999999998,-0.094046592712402344,
2.9500000000000002,-0.10039329528808594,
2.9525000000000001,-0.10664384067058563,
2.9550000000000001,-0.11883239448070526,
2.9575,-0.12474636733531952,
2.96,-0.13051609694957733,
2.9624999999999999,-0.13616561889648438,
2.9649999999999999,-0.14683961868286133,
2.9674999999999998,-0.15167176723480225,
2.9700000000000002,-0.15602311491966248,
2.9725000000000001,-0.15979747474193573,
2.9750000000000001,-0.16511043906211853,
2.9775,-0.16660094261169434,
2.98,-0.16739428043365479,
2.9824999999999999,-0.16758660972118378,
2.9849999999999999,-0.16664902865886688,
2.9874999999999998,-0.16578356921672821,
2.9900000000000002,-0.16474983096122742,
2.9925000000000002,-0.16354779899120331,
2.9950000000000001,-0.16035041213035583,
2.9975000000000001,-0.15813867747783661,
3,-0.15530189871788025,89.385475158691406
3.0024999999999999,-0.15174388885498047,
3.0049999999999999,-0.1421997994184494,
3.0074999999999998,-0.13616561889648438,
3.0099999999999998,-0.12929002940654755,
3.0125000000000002,-0.1215970516204834,
3.0150000000000001,-0.10402341932058334,
3.0175000000000001,-0.094214878976345062,
3.02,-0.083805322647094727,
3.0225,-0.072939001023769379,
3.0249999999999999,-0.050268769264221191,
3.0274999999999999,-0.038873553276062012,
3.0299999999999998,-0.0276947021484375,
3.0325000000000002,-0.016948580741882324,
3.0350000000000001,0.002524256706237793,
3.0375000000000001,0.010986527428030968,
3.04,0.018535256385803223,
3.0425,0.025122364982962608,
3.0449999999999999,0.035772323608398438,
3.0474999999999999,0.040027499198913574,
3.0499999999999998,0.043753784149885178,
3.0525000000000002,0.047047339379787445,
3.0550000000000002,0.052672825753688812,
3.0575000000000001,0.055124960839748383,
3.0600000000000001,0.057312648743391037,
3.0625,0.059211850166320801,
3.0649999999999999,0.061976514756679535,
3.0674999999999999,0.062793895602226257,
3.0699999999999998,0.063226625323295593,
3.0724999999999998,0.063394904136657715,
3.0750000000000002,0.063154503703117371,
3.0775000000000001,0.063010260462760925,
3.0800000000000001,0.062986217439174652,
3.0825,0.063130460679531097,
3.085,0.064092084765434265,
3.0874999999999999,0.064813300967216492,
3.0899999999999999,0.065606638789176941,
3.0924999999999998,0.066351890563964844,
3.0950000000000002,0.067337557673454285,
3.0975000000000001,0.067385636270046234,
3.1000000000000001,0.067097149789333344,
3.1025,0.066424012184143066,
3.105,0.064043998718261719,
3.1074999999999999,0.06245732307434082,
3.1099999999999999,0.06075044721364975,
3.1124999999999998,0.059019528329372406,
3.1150000000000002,0.055918298661708832,
3.1175000000000002,0.054692231118679047,
3.1200000000000001,0.053754650056362152,
3.1225000000000001,0.0530574731528759,
3.125,0.052312217652797699,
3.1274999999999999,0.05214393138885498,
3.1299999999999999,0.052023731172084808,
3.1324999999999998,0.051903527230024338,
3.1349999999999998,0.051663123071193695,
3.1375000000000002,0.051542919129133224,
3.1400000000000001,0.051398675888776779,
3.1425000000000001,0.051302514970302582,
3.145,0.051254432648420334,
3.1475,0.051326554268598557,
3.1499999999999999,0.051494836807250977,
3.1524999999999999,0.051783323287963867,
3.1549999999999998,0.052648782730102539,
3.1575000000000002,0.053153634071350098,
3.1600000000000001,0.053610406816005707,
3.1625000000000001,0.053874850273132324,
3.165,0.053321920335292816,
3.1675,0.052288174629211426,
3.1699999999999999,0.050677459686994553,
3.1724999999999999,0.048537850379943848,
3.1749999999999998,0.043321054428815842,
3.1775000000000002,0.040772758424282074,
3.1800000000000002,0.038633149117231369,
3.1825000000000001,0.037214756011962891,
3.1850000000000001,0.037094555795192719,
3.1875,0.038464866578578949,
3.1899999999999999,0.040652554482221603,
3.1924999999999999,0.043345093727111816,
3.1949999999999998,0.049042701721191406,
3.1974999999999998,0.051350593566894531,
3.2000000000000002,0.052985351532697678,
3.2025000000000001,0.053730607032775879,
3.2050000000000001,0.052552621811628342,
3.2075,0.050821702927350998,
3.21,0.04860997200012207,
3.2124999999999999,0.0461578369140625,
3.2149999999999999,0.041421853005886078,
3.2174999999999998,0.039522647857666016,
3.2200000000000002,0.038080215454101562,
3.2225000000000001,0.037142634391784668,
3.2250000000000001,0.036830108612775803,
3.2275,0.037358999252319336,
3.23,0.038248501718044281,
3.2324999999999999,0.039354365319013596,
3.2349999999999999,0.041830539703369141,
3.2374999999999998,0.042840242385864258,
3.2400000000000002,0.043441258370876312,
3.2425000000000002,0.043465297669172287,
3.2450000000000001,0.041301649063825607,
3.2475000000000001,0.039017796516418457,
3.25,0.036012731492519379,
3.2524999999999999,0.032454729080200195,
3.2549999999999999,0.024569433182477951,
3.2574999999999998,0.02074698731303215,
3.2599999999999998,0.017261108383536339,
3.2625000000000002,0.014280080795288086,
3.2650000000000001,0.010121067985892296,
3.2675000000000001,0.009015202522277832,
3.27,0.0085343923419713974,
3.2725,0.0087267160415649414,
3.2749999999999999,0.010986527428030968,
3.2774999999999999,0.012957851402461529,
3.2799999999999998,0.015265743248164654,
3.2825000000000002,0.017669796943664551,
3.2850000000000001,0.021155675873160362,
3.2875000000000001,0.021275877952575684,
3.29,0.019689202308654785,
3.2925,0.016107162460684776,
3.2949999999999999,0.0026444594841450453,
3.2974999999999999,-0.006659229751676321,
3.2999999999999998,-0.016876459121704102,
3.3025000000000002,-0.027141770347952843,
3.3050000000000002,-0.044018231332302094,
3.3075000000000001,-0.048946540802717209,
3.3100000000000001,-0.050797663629055023,
3.3125,-0.049379270523786545,
3.3149999999999999,-0.038104258477687836,
3.3174999999999999,-0.029617946594953537,
3.3199999999999998,-0.02045850083231926,
3.3224999999999998,-0.011587540619075298,
3.3250000000000002,0.0022357702255249023,
3.3275000000000001,0.0064428648911416531,
3.3300000000000001,0.00891904067248106,
3.3325,0.010072986595332623,
3.335,0.011106729507446289,
3.3374999999999999,0.012404918670654297,
3.3399999999999999,0.01490513514727354,
3.3424999999999998,0.018823742866516113,
3.3450000000000002,0.029906433075666428,
3.3475000000000001,0.035940609872341156,
3.3500000000000001,0.04120548814535141,
3.3525,0.04490773007273674,
3.355,0.045364499092102051,
3.3574999999999999,0.041830539703369141,
3.3599999999999999,0.036325257271528244,
3.3624999999999998,0.029738148674368858,
3.3650000000000002,0.018583338707685471,
3.3675000000000002,0.016924541443586349,
3.3700000000000001,0.019713243469595909,
3.3725000000000001,0.027862986549735069,
3.375,0.061351459473371506,
3.3774999999999999,0.08553624153137207,
3.3799999999999999,0.11277417838573456,
3.3824999999999998,0.14082948863506317,
3.3849999999999998,0.18821339309215546,
3.3875000000000002,0.20133952796459198,
3.3900000000000001,0.20331084728240967,
3.3925000000000001,0.19131462275981903,
3.395,0.11714955419301987,
3.3975,0.052793025970458984,
3.3999999999999999,-0.029449662193655968,
3.4024999999999999,-0.12791971862316132,
3.4049999999999998,-0.35969457030296326,
3.4075000000000002,-0.48295041918754578,
3.4100000000000001,-0.60257613658905029,
3.4125000000000001,-0.71133553981781006,
3.415,-0.86786353588104248,
3.4175,-0.90361177921295166,
3.4199999999999999,-0.90572738647460938,
3.4224999999999999,-0.87308031320571899,
3.4249999999999998,-0.71191251277923584,
3.4275000000000002,-0.59372925758361816,
3.4300000000000002,-0.46056866645812988,
3.4325000000000001,-0.32134991884231567,
3.4350000000000001,-0.059644579887390137,
3.4375,0.04815320298075676,
3.4399999999999999,0.13395389914512634,
3.4424999999999999,0.19561788439750671,
3.4449999999999998,0.24934849143028259,
3.4474999999999998,0.24735312163829803,
3.4500000000000002,0.23199121654033661,
3.4525000000000001,0.20811896026134491,
3.4550000000000001,0.15232086181640625,
3.4575,0.1269100159406662,
3.46,0.10573029518127441,
3.4624999999999999,0.089334651827812195,
3.4649999999999999,0.069429084658622742,
3.4674999999999998,0.064043998718261719,
3.4700000000000002,0.060269635170698166,
3.4725000000000001,0.057192444801330566,
3.4750000000000001,0.050917863845825195,
3.4775,0.047311782836914062,
3.48,0.043561458587646484,
3.4824999999999999,0.039835177361965179,
3.4849999999999999,0.033296149224042892,
3.4874999999999998,0.030723810195922852,
3.4900000000000002,0.028584202751517296,
3.4925000000000002,0.026733081787824631,
3.4950000000000001,0.023271244019269943,
3.4975000000000001,0.021299919113516808,
3.5,0.019040107727050781,
3.5024999999999999,0.016419690102338791,
3.5049999999999999,0.010337432846426964,
3.5074999999999998,0.0071160001680254936,
3.5099999999999998,0.0039426488801836967,
3.5125000000000002,0.00096162164118140936,
3.5150000000000001,-0.0039907298050820827,
3.5175000000000001,-0.0058658919297158718,
3.52,-0.0074044866487383842,
3.5225,-0.0086545944213867188,
3.5249999999999999,-0.010890364646911621,
3.5274999999999999,-0.01214047335088253,
3.5299999999999998,-0.013727148994803429,
3.5325000000000002,-0.015722513198852539,
3.5350000000000001,-0.021347999572753906,
3.5375000000000001,-0.025050243362784386,
3.54,-0.029401581734418869,
3.5425,-0.034257769584655762,
3.5449999999999999,-0.045196216553449631,
3.5474999999999999,-0.050869785249233246,
3.5499999999999998,-0.056375067681074142,
3.5525000000000002,-0.061495702713727951,
3.5550000000000002,-0.069789692759513855,
3.5575000000000001,-0.07277071475982666,
3.5600000000000001,-0.075006484985351562,
3.5625,-0.076665282249450684,
3.5649999999999999,-0.079429946839809418,
3.5674999999999999,-0.081184908747673035,
3.5699999999999998,-0.083637043833732605,
3.5724999999999998,-0.087002716958522797,
3.5750000000000002,-0.09693145751953125,
3.5775000000000001,-0.10335028171539307,
3.5800000000000001,-0.11053840816020966,
3.5825,-0.11823137849569321,
3.585,-0.13385772705078125,
3.5874999999999999,-0.14131030440330505,
3.5899999999999999,-0.14820992946624756,
3.5924999999999998,-0.15446047484874725,
3.5950000000000002,-0.16482195258140564,
3.5975000000000001,-0.16895692050457001,
3.6000000000000001,-0.17251491546630859,
3.6025,-0.17561614513397217,
3.605,-0.18088102340698242,
3.6074999999999999,-0.18330912292003632,
3.6099999999999999,-0.18568913638591766,
3.6124999999999998,-0.18806914985179901,
3.6150000000000002,-0.19273301959037781,
3.6175000000000002,-0.19484858214855194,
3.6200000000000001,-0.19657950103282928,
3.6225000000000001,-0.19775748252868652,
3.625,-0.19763728976249695,
3.6274999999999999,-0.19593040645122528,
3.6299999999999999,-0.19294938445091248,
3.6324999999999998,-0.18869420886039734,
3.6349999999999998,-0.17650565505027771,
3.6375000000000002,-0.16898095607757568,
3.6400000000000001,-0.16078314185142517,
3.6425000000000001,-0.15224874019622803,
3.645,-0.13496360182762146,
3.6475,-0.12650132179260254,
3.6499999999999999,-0.11813521385192871,
3.6524999999999999,-0.10981719195842743,
3.6549999999999998,-0.092508003115653992,
3.6575000000000002,-0.083228349685668945,
3.6600000000000001,-0.073419809341430664,
3.6625000000000001,-0.063106417655944824,
3.665,-0.041590135544538498,
3.6675,-0.03094017505645752,
3.6699999999999999,-0.02074698731303215,
3.6724999999999999,-0.011250972747802734,
3.6749999999999998,0.004832148551940918,
3.6775000000000002,0.011323094367980957,
3.6800000000000002,0.016876459121704102,
3.6825000000000001,0.021612446755170822,
3.6850000000000001,0.029377540573477745,
3.6875,0.032743215560913086,
3.6899999999999999,0.035916566848754883,
3.6924999999999999,0.038969717919826508,
3.6949999999999998,0.044715404510498047,
3.6974999999999998,0.047335825860500336,
3.7000000000000002,0.049739878624677658,
3.7025000000000001,0.05185544490814209,
3.7050000000000001,0.053658485412597656,
3.7075,0.056351028382778168,
3.71,0.057288609445095062,
3.7124999999999999,0.058033864945173264,
3.7149999999999999,0.059043567627668381,
3.7174999999999998,0.059356093406677246,
3.7200000000000002,0.059500336647033691,
3.7225000000000001,0.059452258050441742,
3.7250000000000001,0.05863487720489502,
3.7275,0.057793460786342621,
3.73,0.056711636483669281,
3.7324999999999999,0.055389404296875,
3.7349999999999999,0.052360296249389648,
3.7374999999999998,0.050797663629055023,
3.7400000000000002,0.049331188201904297,
3.7425000000000002,0.04798492044210434,
3.7450000000000001,0.045845311135053635,
3.7475000000000001,0.045051973313093185,
3.75,0.044426918029785156,
3.7524999999999999,0.043922066688537598,
3.7549999999999999,0.043248932808637619,
3.7574999999999998,0.042984485626220703,
3.7599999999999998,0.042695999145507812,
3.7625000000000002,0.042311351746320724,
3.7650000000000001,0.041157405823469162,
3.7675000000000001,0.04029194638133049,
3.77,0.039282243698835373,
3.7725,0.038176380097866058,
3.7749999999999999,0.036060810089111328,
3.7774999999999999,0.035291515290737152,
3.7799999999999998,0.034858785569667816,
3.7825000000000002,0.034786663949489594,
3.7850000000000001,0.03584444522857666,
3.7875000000000001,0.036878190934658051,
3.79,0.038104258477687836,
3.7925,0.039402447640895844,
3.7949999999999999,0.041686296463012695,
3.7974999999999999,0.042503677308559418,
3.7999999999999998,0.043008528649806976,
3.8025000000000002,0.043248932808637619,
3.8050000000000002,0.042960446327924728,
3.8075000000000001,0.042599838227033615,
3.8100000000000001,0.042215190827846527,
3.8125,0.041878622025251389,
3.8149999999999999,0.041493974626064301,
3.8174999999999999,0.041445892304182053,
3.8199999999999998,0.041445892304182053,
3.8224999999999998,0.041397809982299805,
3.8250000000000002,0.040917001664638519,
3.8275000000000001,0.040364068001508713,
3.8300000000000001,0.039594769477844238,
3.8325,0.038657188415527344,
3.835,0.036397378891706467,
3.8374999999999999,0.035267472267150879,
3.8399999999999999,0.034185647964477539,
3.8424999999999998,0.033248066902160645,
3.8450000000000002,0.031781595200300217,
3.8475000000000001,0.031276743859052658,
3.8500000000000001,0.030916135758161545,
3.8525,0.030699770897626877,
3.855,0.030627649277448654,
3.8574999999999999,0.030723810195922852,
3.8599999999999999,0.030868053436279297,
3.8624999999999998,0.031036337837576866,
3.8650000000000002,0.031276743859052658,
3.8675000000000002,0.031252704560756683,
3.8700000000000001,0.031156539916992188,
3.8725000000000001,0.030964216217398643,
3.875,0.030723810195922852,
3.8774999999999999,0.030050676316022873,
3.8799999999999999,0.029641985893249512,
3.8824999999999998,0.029209256172180176,
3.8849999999999998,0.028055310249328613,
3.8875000000000002,0.027310054749250412,
3.8900000000000001,0.026492675766348839,
3.8925000000000001,0.025579135864973068,
3.895,0.023824175819754601,
3.8975,0.023151040077209473,
3.8999999999999999,0.022694271057844162,
3.9024999999999999,0.022501945495605469,
3.9049999999999998,0.022886594757437706,
3.9075000000000002,0.023367404937744141,
3.9100000000000001,0.023896297439932823,
3.9125000000000001,0.024353068321943283,
3.915,0.024497311562299728,
3.9175,0.023944377899169922,
3.9199999999999999,0.022838514298200607,
3.9224999999999999,0.021107595413923264,
3.9249999999999998,0.015794634819030762,
3.9275000000000002,0.012380878441035748,
3.9300000000000002,0.0086305541917681694,
3.9325000000000001,0.0048081083223223686,
3.9350000000000001,-0.0019953649025410414,
3.9375,-0.004399418830871582,
3.9399999999999999,-0.0058658919297158718,
3.9424999999999999,-0.0062024593353271484,
3.9449999999999998,-0.0035580000840127468,
3.9474999999999998,-0.0008895000210031867,
3.9500000000000002,0.002259810920804739,
3.9525000000000001,0.0054331622086465359,
3.9550000000000001,0.0099287433549761772,
3.9575,0.01031339168548584,
3.96,0.0089671220630407333,
3.9624999999999999,0.0056735677644610405,
3.9649999999999999,-0.0065390272065997124,
3.9674999999999998,-0.01492917537689209,
3.9700000000000002,-0.024184783920645714,
3.9725000000000001,-0.03368079662322998,
3.9750000000000001,-0.050581298768520355,
3.9775,-0.056687593460083008,
3.98,-0.060606203973293304,
3.9824999999999999,-0.062024593353271484,
3.9849999999999999,-0.057408809661865234,
3.9874999999999998,-0.05180736631155014,
3.9900000000000002,-0.044571161270141602,
3.9925000000000002,-0.036229096353054047,
3.9950000000000001,-0.018511217087507248,
3.9975000000000001,-0.010097026824951172,
4,-0.0025002162437886,100.37174987792969
4.0025000000000004,0.0040628514252603054,
4.0049999999999999,0.013967554084956646,
4.0075000000000003,0.017477473244071007,
4.0099999999999998,0.020242135971784592,
4.0125000000000002,0.022429823875427246,
4.0149999999999997,0.025458931922912598,
4.0175000000000001,0.026300352066755295,
4.0199999999999996,0.026516716927289963,
4.0225,0.025963783264160156,
4.0250000000000004,0.021973054856061935,
4.0274999999999999,0.018703540787100792,
4.0300000000000002,0.015001296997070312,
4.0324999999999998,0.011563500389456749,
4.0350000000000001,0.009255608543753624,
4.0374999999999996,0.012549161911010742,
4.04,0.020145973190665245,
4.0425000000000004,0.032743215560913086,
4.0449999999999999,0.073371730744838715,
4.0475000000000003,0.1000567302107811,
4.0499999999999998,0.12907366454601288,
4.0525000000000002,0.15813867747783661,
4.0549999999999997,0.2051379382610321,
4.0575000000000001,0.2167975902557373,
4.0599999999999996,0.21634082496166229,
4.0625,0.20095488429069519,
4.0650000000000004,0.11714955419301987,
4.0674999999999999,0.046782892197370529,
4.0700000000000003,-0.042022865265607834,
4.0724999999999998,-0.14722427725791931,
4.0750000000000002,-0.39174062013626099,
4.0774999999999997,-0.52023732662200928,
4.0800000000000001,-0.64394992589950562,
4.0824999999999996,-0.75549805164337158,
4.085,-0.91337227821350098,
4.0875000000000004,-0.94775021076202393,
4.0899999999999999,-0.94736558198928833,
4.0925000000000002,-0.91125667095184326,
4.0949999999999998,-0.74124199151992798,
4.0975000000000001,-0.61817848682403564,
4.0999999999999996,-0.48018574714660645,
4.1025,-0.33635121583938599,
4.1050000000000004,-0.06678462028503418,
4.1074999999999999,0.044018231332302094,
4.1100000000000003,0.13215085864067078,
4.1124999999999998,0.19554576277732849,
4.1150000000000002,0.25107941031455994,
4.1174999999999997,0.24934849143028259,
4.1200000000000001,0.23391446471214294,
4.1224999999999996,0.20970563590526581,
4.125,0.15260934829711914,
4.1275000000000004,0.12635707855224609,
4.1299999999999999,0.10423978418111801,
4.1325000000000003,0.086978673934936523,
4.1349999999999998,0.065798960626125336,
4.1375000000000002,0.060173474252223969,
4.1399999999999997,0.056399106979370117,
4.1425000000000001,0.053586363792419434,
4.1449999999999996,0.048081081360578537,
4.1475,0.044763486832380295,
4.1500000000000004,0.041013162583112717,
4.1524999999999999,0.037046473473310471,
4.1550000000000002,0.029329460114240646,
4.1574999999999998,0.026011865586042404,
4.1600000000000001,0.023247202858328819,
4.1624999999999996,0.021035473793745041,
4.165,0.018102526664733887,
4.1675000000000004,0.017068784683942795,
4.1699999999999999,0.016083121299743652,
4.1725000000000003,0.015001296997070312,
4.1749999999999998,0.011996230110526085,
4.1775000000000002,0.0099527835845947266,
4.1799999999999997,0.0074766082689166069,
4.1825000000000001,0.0046638650819659233,
4.1849999999999996,0.0015145540237426758,
4.1875,-0.0054572029039263725,
4.1900000000000004,-0.009135405533015728,
4.1924999999999999,-0.012837648391723633,
4.1950000000000003,-0.016515851020812988,
4.1974999999999998,-0.023728013038635254,
4.2000000000000002,-0.027261972427368164,
4.2024999999999997,-0.030723810195922852,
4.2050000000000001,-0.037551324814558029,
4.2074999999999996,-0.040868919342756271,
4.21,-0.044090352952480316,
4.2125000000000004,-0.047167539596557617,
4.2149999999999999,-0.052865147590637207,
4.2175000000000002,-0.055461525917053223,
4.2199999999999998,-0.057913661003112793,
4.2225000000000001,-0.060293674468994141,
4.2249999999999996,-0.062673687934875488,
4.2275,-0.06781836599111557,
4.2300000000000004,-0.070751309394836426,
4.2324999999999999,-0.073996782302856445,
4.2350000000000003,-0.077578827738761902,
4.2374999999999998,-0.085824728012084961,
4.2400000000000002,-0.090440511703491211,
4.2424999999999997,-0.095320746302604675,
4.2450000000000001,-0.10044138133525848,
4.2474999999999996,-0.11128365993499756,
4.25,-0.1169331893324852,
4.2525000000000004,-0.12267887592315674,
4.2549999999999999,-0.12852072715759277,
4.2575000000000003,-0.14034867286682129,
4.2599999999999998,-0.14631073176860809,
4.2625000000000002,-0.1522727906703949,
4.2649999999999997,-0.15816271305084229,
4.2675000000000001,-0.16958197951316833,
4.2699999999999996,-0.17491897940635681,
4.2725,-0.17989537119865417,
4.2750000000000004,-0.18439094722270966,
4.2774999999999999,-0.1916271448135376,
4.2800000000000002,-0.19424757361412048,
4.2824999999999998,-0.1961948573589325,
4.2850000000000001,-0.19751708209514618,
4.2874999999999996,-0.1984306275844574,
4.29,-0.19816617667675018,
4.2925000000000004,-0.19751708209514618,
4.2949999999999999,-0.19653141498565674,
4.2975000000000003,-0.19347827136516571,
4.2999999999999998,-0.19138674437999725,
4.3025000000000002,-0.18881440162658691,
4.3049999999999997,-0.18573722243309021,
4.3075000000000001,-0.17751535773277283,
4.3099999999999996,-0.17220239341259003,
4.3125,-0.16595184803009033,
4.3150000000000004,-0.15876373648643494,
4.3174999999999999,-0.1415507048368454,
4.3200000000000003,-0.13169407844543457,
4.3224999999999998,-0.12123644351959229,
4.3250000000000002,-0.11034607887268066,
4.3274999999999997,-0.08810858428478241,
4.3300000000000001,-0.077170133590698242,
4.3324999999999996,-0.066544219851493835,
4.335,-0.056351028382778168,
4.3375000000000004,-0.037431120872497559,
4.3399999999999999,-0.028728445991873741,
4.3425000000000002,-0.020530622452497482,
4.3449999999999998,-0.012813608162105083,
4.3475000000000001,0.0012020270805805922,
4.3499999999999996,0.0075246891938149929,
4.3525,0.013390581123530865,
4.3550000000000004,0.018823742866516113,
4.3574999999999999,0.028343796730041504,
4.3600000000000003,0.032430689781904221,
4.3624999999999998,0.036036770790815353,
4.3650000000000002,0.03921012207865715,
4.3674999999999997,0.044258635491132736,
4.3700000000000001,0.046181879937648773,
4.3724999999999996,0.047768555581569672,
4.375,0.049042701721191406,
4.3775000000000004,0.050749581307172775,
4.3799999999999999,0.051182311028242111,
4.3825000000000003,0.051374636590480804,
4.3849999999999998,0.051278471946716309,
4.3875000000000002,0.050292812287807465,
4.3899999999999997,0.04952351376414299,
4.3925000000000001,0.048634015023708344,
4.3949999999999996,0.047768555581569672,
4.3975,0.046398244798183441,
4.4000000000000004,0.046061675995588303,
4.4024999999999999,0.04598955437541008,
4.4050000000000002,0.046133797615766525,
4.4074999999999998,0.046830974519252777,
4.4100000000000001,0.047119460999965668,
4.4124999999999996,0.047263704240322113,
4.415,0.047143500298261642,
4.4175000000000004,0.046037636697292328,
4.4199999999999999,0.045100055634975433,
4.4225000000000003,0.04399418830871582,
4.4249999999999998,0.042864285409450531,
4.4275000000000002,0.040965080261230469,
4.4299999999999997,0.040340028703212738,
4.4325000000000001,0.040003459900617599,
4.4349999999999996,0.039931338280439377,
4.4375,0.040075581520795822,
4.4400000000000004,0.040027499198913574,
4.4424999999999999,0.039690934121608734,
4.4450000000000003,0.038969717919826508,
4.4474999999999998,0.036181014031171799,
4.4500000000000002,0.034257769584655762,
4.4524999999999997,0.03214220330119133,
4.4550000000000001,0.030050676316022873,
4.4574999999999996,0.026781162247061729,
4.46,0.025915702804923058,
4.4625000000000004,0.02569933794438839,
4.4649999999999999,0.026083987206220627,
4.4675000000000002,0.028271675109863281,
4.4699999999999998,0.029786229133605957,
4.4725000000000001,0.031348865479230881,
4.4749999999999996,0.032791297882795334,
4.4775,0.034906864166259766,
4.4800000000000004,0.035483837127685547,
4.4824999999999999,0.035748284310102463,
4.4850000000000003,0.035724245011806488,
4.4874999999999998,0.035075150430202484,
4.4900000000000002,0.034642420709133148,
4.4924999999999997,0.034185647964477539,
4.4950000000000001,0.033752918243408203,
4.4974999999999996,0.033031702041625977,
4.5,0.032695136964321136,
4.5025000000000004,0.032262407243251801,
4.5049999999999999,0.031709473580121994,
4.5075000000000003,0.030074715614318848,
4.5099999999999998,0.028968852013349533,
4.5125000000000002,0.027718743309378624,
4.5149999999999997,0.026396512985229492,
4.5175000000000001,0.023752054199576378,
4.5199999999999996,0.022598108276724815,
4.5225,0.021612446755170822,
4.5250000000000004,0.020843148231506348,
4.5274999999999999,0.0200017299503088,
4.5300000000000002,0.019905567169189453,
4.5324999999999998,0.020025771111249924,
4.5350000000000001,0.020338296890258789,
4.5374999999999996,0.021299919113516808,
4.54,0.02182881161570549,
4.5425000000000004,0.022261541336774826,
4.5449999999999999,0.022525986656546593,
4.5475000000000003,0.022285580635070801,
4.5499999999999998,0.021732648834586143,
4.5525000000000002,0.020891230553388596,
4.5549999999999997,0.019881527870893478,
4.5575000000000001,0.017765959724783897,
4.5599999999999996,0.016948580741882324,
4.5625,0.01646777056157589,
4.5650000000000004,0.016419690102338791,
4.5674999999999999,0.017645757645368576,
4.5700000000000003,0.018823742866516113,
4.5724999999999998,0.020218094810843468,
4.5750000000000002,0.021684568375349045,
4.5774999999999997,0.024112662300467491,
4.5800000000000001,0.024761756882071495,
4.5824999999999996,0.024930041283369064,
4.585,0.024569433182477951,
4.5875000000000004,0.022646188735961914,
4.5899999999999999,0.021323960274457932,
4.5925000000000002,0.019977688789367676,
4.5949999999999998,0.018799703568220139,
4.5975000000000001,0.017140906304121017,
4.5999999999999996,0.016660094261169434,
4.6025,0.016323527321219444,
4.6050000000000004,0.015914838761091232,
4.6074999999999999,0.014328162185847759,
4.6100000000000003,0.012837648391723633,
4.6124999999999998,0.010794202797114849,
4.6150000000000002,0.0082218647003173828,
4.6174999999999997,0.0019713244400918484,
4.6200000000000001,-0.0013462703209370375,
4.6224999999999996,-0.0044715404510498047,
4.625,-0.0071881217882037163,
4.6275000000000004,-0.010649959556758404,
4.6299999999999999,-0.011154810898005962,
4.6325000000000003,-0.010842284187674522,
4.6349999999999998,-0.0097364187240600586,
4.6375000000000002,-0.0059139728546142578,
4.6399999999999997,-0.0036782026290893555,
4.6425000000000001,-0.0016107162227854133,
4.6449999999999996,0,
4.6475,0.00093758106231689453,
4.6500000000000004,-9.6162162662949413e-05,
4.6524999999999999,-0.0022117297630757093,
4.6550000000000002,-0.0054091215133666992,
4.6574999999999998,-0.014664730057120323,
4.6600000000000001,-0.020410418510437012,
4.6624999999999996,-0.026564797386527061,
4.665,-0.032935541123151779,
4.6675000000000004,-0.045124094933271408,
4.6699999999999999,-0.050340890884399414,
4.6725000000000003,-0.054596066474914551,
4.6749999999999998,-0.057625174522399902,
4.6775000000000002,-0.059308014810085297,
4.6799999999999997,-0.057769417762756348,
4.6825000000000001,-0.054692231118679047,
4.6849999999999996,-0.050244729965925217,
4.6875,-0.038224458694458008,
4.6900000000000004,-0.03122866153717041,
4.6924999999999999,-0.024040540680289268,
4.6950000000000003,-0.016900500282645226,
4.6974999999999998,-0.0036541621666401625,
4.7000000000000002,0.0021636486053466797,
4.7024999999999997,0.0072842836380004883,
4.7050000000000001,0.011659662239253521,
4.7074999999999996,0.017934244126081467,
4.71,0.019641121849417686,
4.7125000000000004,0.02029021643102169,
4.7149999999999999,0.019761323928833008,
4.7175000000000002,0.015121500007808208,
4.7199999999999998,0.011347135528922081,
4.7225000000000001,0.007091959472745657,
4.7249999999999996,0.0029810271225869656,
4.7275,-0.0012501081218943,
4.7300000000000004,0.00057697296142578125,
4.7324999999999999,0.0062986216507852077,
4.7350000000000003,0.016612013801932335,
4.7374999999999998,0.051783323287963867,
4.7400000000000002,0.075751744210720062,
4.7424999999999997,0.10246078670024872,
4.7450000000000001,0.13003528118133545,
4.7474999999999996,0.17818848788738251,
4.75,0.1932138204574585,
4.7525000000000004,0.19835850596427917,
4.7549999999999999,0.1907857358455658,
4.7575000000000003,0.12837648391723633,
4.7599999999999998,0.070462822914123535,
4.7625000000000002,-0.0057937703095376492,
4.7649999999999997,-0.09938359260559082,
4.7675000000000001,-0.32764852046966553,
4.7699999999999996,-0.45330843329429626,
4.7725,-0.57851159572601318,
4.7750000000000004,-0.69597363471984863,
4.7774999999999999,-0.87747973203659058,
4.7800000000000002,-0.92786872386932373,
4.7824999999999998,-0.94462496042251587,
4.7850000000000001,-0.92544060945510864,
4.7874999999999996,-0.7832648754119873,
4.79,-0.66902422904968262,
4.7925000000000004,-0.53562325239181519,
4.7949999999999999,-0.3921973705291748,
4.7975000000000003,-0.11267801374197006,
4.7999999999999998,0.0067313513718545437,
4.8025000000000002,0.10438402742147446,
4.8049999999999997,0.17717878520488739,
4.8075000000000001,0.24790605902671814,
4.8099999999999996,0.25107941031455994,
4.8125,0.23872256278991699,
4.8150000000000004,0.21600425243377686,
4.8174999999999999,0.15895605087280273,
4.8200000000000003,0.13212680816650391,
4.8224999999999998,0.10945658385753632,
4.8250000000000002,0.091690622270107269,
4.8274999999999997,0.069573327898979187,
4.8300000000000001,0.063154503703117371,
4.8324999999999996,0.058226190507411957,
4.835,0.053826771676540375,
4.8375000000000004,0.044354796409606934,
4.8399999999999999,0.038993757218122482,
4.8425000000000002,0.033488474786281586,
4.8449999999999998,0.028175514191389084,
4.8475000000000001,0.019232433289289474,
4.8499999999999996,0.015890797600150108,
4.8525,0.013294419273734093,
4.8550000000000004,0.011299054138362408,
4.8574999999999999,0.0081016626209020615,
4.8600000000000003,0.0065149865113198757,
4.8624999999999998,0.0047119460068643093,
4.8650000000000002,0.0026925406418740749,
4.8674999999999997,-0.0020194053649902344,
4.8700000000000001,-0.004567702766507864,
4.8724999999999996,-0.0071640810929238796,
4.875,-0.0097123784944415092,
4.8775000000000004,-0.014568567276000977,
4.8799999999999999,-0.016804337501525879,
4.8825000000000003,-0.018847784027457237,
4.8849999999999998,-0.020650824531912804,
4.8875000000000002,-0.023199122399091721,
4.8899999999999997,-0.023824175819754601,
4.8925000000000001,-0.024064581841230392,
4.8949999999999996,-0.02399246022105217,
4.8975,-0.023872256278991699,
4.9000000000000004,-0.024545392021536827,
4.9024999999999999,-0.026204189285635948,
4.9050000000000002,-0.0292332973331213,
4.9074999999999998,-0.040267907083034515,
4.9100000000000001,-0.048249363899230957,
4.9124999999999996,-0.05750497430562973,
4.915,-0.067529879510402679,
4.9175000000000004,-0.087507568299770355,
4.9199999999999999,-0.096210241317749023,
4.9225000000000003,-0.10344644635915756,
4.9249999999999998,-0.10897576808929443,
4.9275000000000002,-0.1152503490447998,
4.9299999999999997,-0.11664470285177231,
4.9325000000000001,-0.1175822839140892,
4.9349999999999996,-0.11864006519317627,
4.9375,-0.12311160564422607,
4.9400000000000004,-0.12719850242137909,
4.9424999999999999,-0.13260762393474579,
4.9450000000000003,-0.1392187774181366,
4.9474999999999998,-0.1546047180891037,
4.9500000000000002,-0.16253809630870819,
4.9524999999999997,-0.17006278038024902,
4.9550000000000001,-0.17681817710399628,
4.9574999999999996,-0.18727581202983856,
4.96,-0.19088189303874969,
4.9625000000000004,-0.19355039298534393,
4.9649999999999999,-0.1954495906829834,
4.9675000000000002,-0.19782960414886475,
4.9699999999999998,-0.19867102801799774,
4.9725000000000001,-0.19946436583995819,
4.9749999999999996,-0.20032982528209686,
4.9775,-0.20218095183372498,
4.9800000000000004,-0.20316660404205322,
4.9824999999999999,-0.20405611395835876,
4.9850000000000003,-0.20477733016014099,
4.9874999999999998,-0.20504176616668701,
4.9900000000000002,-0.20422439277172089,
4.9924999999999997,-0.20256559550762177,
4.9950000000000001,-0.1999211311340332,
4.9974999999999996,-0.19133865833282471,
5,-0.18540064990520477,96.774192810058594
5.0025000000000004,-0.17852506041526794,
5.0049999999999999,-0.17088016867637634,
5.0075000000000003,-0.15405178070068359,
5.0099999999999998,-0.14530102908611298,
5.0125000000000002,-0.13650219142436981,
5.0149999999999997,-0.12775143980979919,
5.0175000000000001,-0.11046628654003143,
5.0199999999999996,-0.10188381373882294,
5.0225,-0.093277297914028168,
5.0250000000000004,-0.0845746248960495,
5.0274999999999999,-0.066976949572563171,
5.0300000000000002,-0.058130025863647461,
5.0324999999999998,-0.04935523122549057,
5.0350000000000001,-0.040772758424282074,
5.0374999999999996,-0.024785798043012619,
5.04,-0.017645757645368576,
5.0425000000000004,-0.011202892288565636,
5.0449999999999999,-0.0055052838288247585,
5.0475000000000003,0.0037503242492675781,
5.0499999999999998,0.0074766082689166069,
5.0525000000000002,0.010794202797114849,
5.0549999999999997,0.013895432464778423,
5.0575000000000001,0.019857486709952354,
5.0599999999999996,0.02291063591837883,
5.0625,0.02598782442510128,
5.0650000000000004,0.029089054092764854,
5.0674999999999999,0.034810703247785568,
5.0700000000000003,0.037214756011962891,
5.0724999999999998,0.039162039756774902,
5.0750000000000002,0.040604472160339355,
5.0774999999999997,0.041854582726955414,
5.0800000000000001,0.041710339486598969,
5.0824999999999996,0.04120548814535141,
5.085,0.040436189621686935,
5.0875000000000004,0.038609109818935394,
5.0899999999999999,0.03783981129527092,
5.0925000000000002,0.037310920655727386,
5.0949999999999998,0.037094555795192719,
5.0975000000000001,0.037479203194379807,
5.0999999999999996,0.037935972213745117,
5.1025,0.038392744958400726,
5.1050000000000004,0.038681231439113617,
5.1074999999999999,0.03829658031463623,
5.1100000000000003,0.037479203194379807,
5.1124999999999998,0.036301217973232269,
5.1150000000000002,0.034810703247785568,
5.1174999999999997,0.031709473580121994,
5.1200000000000001,0.030435323715209961,
5.1224999999999996,0.029593905434012413,
5.125,0.0292332973331213,
5.1275000000000004,0.029954513534903526,
5.1299999999999999,0.030819972977042198,
5.1325000000000003,0.031781595200300217,
5.1349999999999998,0.032574933022260666,
5.1375000000000002,0.032911501824855804,
5.1399999999999997,0.032166242599487305,
5.1425000000000001,0.030771892517805099,
5.1449999999999996,0.028824608772993088,
5.1475,0.024112662300467491,
5.1500000000000004,0.021852850914001465,
5.1524999999999999,0.020025771111249924,
5.1550000000000002,0.018823742866516113,
5.1574999999999998,0.018463134765625,
5.1600000000000001,0.019160311669111252,
5.1624999999999996,0.020145973190665245,
5.165,0.021107595413923264,
5.1675000000000004,0.021973054856061935,
5.1699999999999999,0.021420121192932129,
5.1725000000000003,0.020170014351606369,
5.1749999999999998,0.01829485222697258,
5.1775000000000002,0.013510784134268761,
5.1799999999999997,0.011154810898005962,
5.1825000000000001,0.0092315673828125,
5.1849999999999996,0.0079093379899859428,
5.1875,0.0075727701187133789,
5.1900000000000004,0.0085103511810302734,
5.1924999999999999,0.0099768247455358505,
5.1950000000000003,0.011755824089050293,
5.1974999999999998,0.015265743248164654,
5.2000000000000002,0.016563933342695236,
5.2024999999999997,0.017309188842773438,
5.2050000000000001,0.017453432083129883,
5.2074999999999996,0.0161312036216259,
5.21,0.014881094917654991,
5.2125000000000004,0.013510784134268761,
5.2149999999999999,0.012188553810119629,
5.2175000000000002,0.010529756546020508,
5.2199999999999998,0.010433594696223736,
5.2225000000000001,0.010938446037471294,
5.2249999999999996,0.011972188949584961,
5.2275,0.015241703018546104,
5.2300000000000004,0.017140906304121017,
5.2324999999999999,0.01891990564763546,
5.2350000000000003,0.020314257591962814,
5.2374999999999998,0.021179717034101486,
5.2400000000000002,0.020410418510437012,
5.2424999999999997,0.018823742866516113,
5.2450000000000001,0.016515851020812988,
5.2474999999999996,0.010673999786376953,
5.25,0.0077650947496294975,
5.2525000000000004,0.0052648782730102539,
5.2549999999999999,0.0034377973061054945,
5.2575000000000003,0.0024521350860595703,
5.2599999999999998,0.0032695136032998562,
5.2625000000000002,0.0047600269317626953,
5.2649999999999997,0.006659229751676321,
5.2675000000000001,0.010529756546020508,
5.2699999999999996,0.011972188949584961,
5.2725,0.012789567932486534,
5.2750000000000004,0.012909770011901855,
5.2774999999999999,0.010962486267089844,
5.2800000000000002,0.009015202522277832,
5.2824999999999998,0.006611148826777935,
5.2850000000000001,0.0038945674896240234,
5.2874999999999996,-0.0017309188842773438,
5.29,-0.0042311353608965874,
5.2925000000000004,-0.0062745809555053711,
5.2949999999999999,-0.0077170133590698242,
5.2975000000000003,-0.0083661079406738281,
5.2999999999999998,-0.0075727701187133789,
5.3025000000000002,-0.0061784191057085991,
5.3049999999999997,-0.0043753786012530327,
5.3075000000000001,-0.00062505406094714999,
5.3099999999999996,0.0007692973013035953,
5.3125,0.0014183919411152601,
5.3150000000000004,0.0011779865017160773,
5.3174999999999999,-0.0025482974015176296,
5.3200000000000003,-0.0060582160949707031,
5.3224999999999998,-0.010529756546020508,
5.3250000000000002,-0.015818675979971886,
5.3274999999999997,-0.027838945388793945,
5.3300000000000001,-0.033993326127529144,
5.3324999999999996,-0.039907298982143402,
5.335,-0.045244298875331879,
5.3375000000000004,-0.053177677094936371,
5.3399999999999999,-0.055317282676696777,
5.3425000000000002,-0.056014459580183029,
5.3449999999999998,-0.055173039436340332,
5.3475000000000001,-0.048850379884243011,
5.3499999999999996,-0.043513379991054535,
5.3525,-0.036998391151428223,
5.3550000000000004,-0.029617946594953537,
5.3574999999999999,-0.01353482436388731,
5.3600000000000003,-0.0056254863739013672,
5.3624999999999998,0.0017790000420063734,
5.3650000000000002,0.0083901491016149521,
5.3674999999999997,0.018799703568220139,
5.3700000000000001,0.022622149437665939,
5.3724999999999996,0.02569933794438839,
5.375,0.028199553489685059,
5.3775000000000004,0.032238364219665527,
5.3799999999999999,0.034017365425825119,
5.3825000000000003,0.035724245011806488,
5.3849999999999998,0.037383042275905609,
5.3875000000000002,0.040748715400695801,
5.3899999999999997,0.042671959847211838,
5.3925000000000001,0.04507601261138916,
5.3949999999999996,0.048345528542995453,
5.3975,0.059356093406677246,
5.4000000000000004,0.067986652255058289,
5.4024999999999999,0.079093381762504578,
5.4050000000000002,0.092652246356010437,
5.4074999999999998,0.12513101100921631,
5.4100000000000001,0.14181515574455261,
5.4124999999999996,0.15650391578674316,
5.415,0.16684135794639587,
5.4175000000000004,0.16376416385173798,
5.4199999999999999,0.14482021331787109,
5.4225000000000003,0.11097113788127899,
5.4249999999999998,0.060558121651411057,
5.4275000000000002,-0.091546379029750824,
5.4299999999999997,-0.1906895637512207,
5.4325000000000001,-0.30103564262390137,
5.4349999999999996,-0.4176563024520874,
5.4375,-0.64407014846801758,
5.4400000000000004,-0.73951107263565063,
5.4424999999999999,-0.81365209817886353,
5.4450000000000003,-0.86055517196655273,
5.4474999999999998,-0.85733377933502197,
5.4500000000000002,-0.8053821325302124,
5.4524999999999997,-0.7228509783744812,
5.4550000000000001,-0.61505317687988281,
5.4574999999999996,-0.35363635420799255,
5.46,-0.21735052764415741,
5.4625000000000004,-0.088757678866386414,
5.4649999999999999,0.024978121742606163,
5.4675000000000002,0.18859803676605225,
5.4699999999999998,0.2346116304397583,
5.4725000000000001,0.25790691375732422,
5.4749999999999996,0.26163321733474731,
5.4775,0.22821685671806335,
5.4800000000000004,0.20071446895599365,
5.4824999999999999,0.17176966369152069,
5.4850000000000003,0.1446278989315033,
5.4874999999999998,0.10284543037414551,
5.4900000000000002,0.089214444160461426,
5.4924999999999997,0.079718433320522308,
5.4950000000000001,0.073299609124660492,
5.4974999999999996,0.064789257943630219,
5.5,0.060774486511945724,
5.5025000000000004,0.0561346635222435,
5.5049999999999999,0.050677459686994553,
5.5075000000000003,0.037935972213745117,
5.5099999999999998,0.031324826180934906,
5.5125000000000002,0.025050243362784386,
5.5149999999999997,0.019424756988883018,
5.5175000000000001,0.010818243026733398,
5.5199999999999996,0.0078852977603673935,
5.5225,0.0057697296142578125,
5.5250000000000004,0.00430325698107481,
5.5274999999999999,0.0025002162437886,
5.5300000000000002,0.0018030405044555664,
5.5324999999999998,0.001033743261359632,
5.5350000000000001,4.8081081331474707e-05,
5.5374999999999996,-0.0029329459648579359,
5.54,-0.0049763917922973633,
5.5425000000000004,-0.0074285268783569336,
5.5449999999999999,-0.010217229835689068,
5.5475000000000003,-0.016419690102338791,
5.5499999999999998,-0.019641121849417686,
5.5525000000000002,-0.022790431976318359,
5.5549999999999997,-0.025843581184744835,
5.5575000000000001,-0.031493108719587326,
5.5599999999999996,-0.03413756936788559,
5.5625,-0.036782026290893555,
5.5650000000000004,-0.039426486939191818,
5.5674999999999999,-0.044979851692914963,
5.5700000000000003,-0.047888755798339844,
5.5724999999999998,-0.050845742225646973,
5.5750000000000002,-0.053802728652954102,
5.5774999999999997,-0.059740744531154633,
5.5800000000000001,-0.062769852578639984,
5.5824999999999996,-0.065919160842895508,
5.585,-0.069284841418266296,
5.5875000000000004,-0.077073976397514343,
5.5899999999999999,-0.081569552421569824,
5.5925000000000002,-0.086449787020683289,
5.5949999999999998,-0.091618500649929047,
5.5975000000000001,-0.10250886529684067,
5.5999999999999996,-0.10799010843038559,
5.6025,-0.11337518692016602,
5.6050000000000004,-0.11859198659658432,
5.6074999999999999,-0.12873709201812744,
5.6100000000000003,-0.13376156985759735,
5.6124999999999998,-0.13878604769706726,
5.6150000000000002,-0.14393071830272675,
5.6174999999999997,-0.15446047484874725,
5.6200000000000001,-0.15972535312175751,
5.6224999999999996,-0.16487002372741699,
5.625,-0.16972622275352478,
5.6275000000000004,-0.17818848788738251,
5.6299999999999999,-0.18162629008293152,
5.6325000000000003,-0.18446306884288788,
5.6349999999999998,-0.18681904673576355,
5.6375000000000002,-0.19030492007732391,
5.6399999999999997,-0.19167523086071014,
5.6425000000000001,-0.19290129840373993,
5.6449999999999996,-0.19395908713340759,
5.6475,-0.19532939791679382,
5.6500000000000004,-0.19532939791679382,
5.6524999999999999,-0.1946081817150116,
5.6550000000000002,-0.19299745559692383,
5.6574999999999998,-0.186770960688591,
5.6600000000000001,-0.18213114142417908,
5.6624999999999996,-0.17664989829063416,
5.665,-0.17047147452831268,
5.6675000000000004,-0.1567443311214447,
5.6699999999999999,-0.14948408305644989,
5.6725000000000003,-0.14205555617809296,
5.6749999999999998,-0.1344587504863739,
5.6775000000000002,-0.11839966475963593,
5.6799999999999997,-0.10976910591125488,
5.6825000000000001,-0.10068178176879883,
5.6849999999999996,-0.091137692332267761,
5.6875,-0.071087881922721863,
5.6900000000000004,-0.06091872975230217,
5.6924999999999999,-0.050941906869411469,
5.6950000000000003,-0.04137377068400383,
5.6974999999999998,-0.024088621139526367,
5.7000000000000002,-0.016563933342695236,
5.7024999999999997,-0.0097364187240600586,
5.7050000000000001,-0.0035580000840127468,
5.7074999999999996,0.0073323650285601616,
5.71,0.012308756820857525,
5.7125000000000004,0.017044743523001671,
5.7149999999999999,0.021564364433288574,
5.7175000000000002,0.029569864273071289,
5.7199999999999998,0.032839380204677582,
5.7225000000000001,0.035483837127685547,
5.7249999999999996,0.037479203194379807,
5.7275,0.039594769477844238,
5.7300000000000004,0.040051542222499847,
5.7324999999999999,0.040388107299804688,
5.7350000000000003,0.040844880044460297,
5.7374999999999998,0.042816203087568283,
5.7400000000000002,0.044450961053371429,
5.7424999999999997,0.046446323394775391,
5.7450000000000001,0.04860997200012207,
5.7474999999999996,0.052624743431806564,
5.75,0.054067175835371017,
5.7525000000000004,0.054932635277509689,
5.7549999999999999,0.05522112175822258,
5.7575000000000003,0.054427783936262131,
5.7599999999999998,0.053706567734479904,
5.7625000000000002,0.053033433854579926,
5.7649999999999997,0.052576661109924316,
5.7675000000000001,0.05276898667216301,
5.7699999999999996,0.053394041955471039,
5.7725,0.054235458374023438,
5.7750000000000004,0.055100917816162109,
5.7774999999999999,0.056326985359191895,
5.7800000000000002,0.056351028382778168,
5.7824999999999998,0.055870216339826584,
5.7850000000000001,0.054908595979213715,
5.7874999999999996,0.051759283989667892,
5.79,0.049812000244855881,
5.7925000000000004,0.047792594879865646,
5.7949999999999999,0.045797228813171387,
5.7975000000000003,0.042119026184082031,
5.7999999999999998,0.040532350540161133,
5.8025000000000002,0.03908991813659668,
5.8049999999999997,0.037863850593566895,
5.8075000000000001,0.036229096353054047,
5.8099999999999996,0.035892527550458908,
5.8125,0.035940609872341156,
5.8150000000000004,0.036373339593410492,
5.8174999999999999,0.03796001523733139,
5.8200000000000003,0.038801431655883789,
5.8224999999999998,0.039426486939191818,
5.8250000000000002,0.039570730179548264,
5.8274999999999997,0.037887893617153168,
5.8300000000000001,0.035988688468933105,
5.8324999999999996,0.033488474786281586,
5.835,0.030579566955566406,
5.8375000000000004,0.024569433182477951,
5.8399999999999999,0.021924972534179688,
5.8425000000000002,0.019761323928833008,
5.8449999999999998,0.018198689445853233,
5.8475000000000001,0.016660094261169434,
5.8499999999999996,0.016491811722517014,
5.8525,0.016563933342695236,
5.8550000000000004,0.016708176583051682,
5.8574999999999999,0.016900500282645226,
5.8600000000000003,0.016900500282645226,
5.8624999999999998,0.016876459121704102,
5.8650000000000002,0.016924541443586349,
5.8674999999999997,0.017693838104605675,
5.8700000000000001,0.018631419166922569,
5.8724999999999996,0.019953649491071701,
5.875,0.021684568375349045,
5.8775000000000004,0.025771459564566612,
5.8799999999999999,0.027790864929556847,
5.8825000000000003,0.029497742652893066,
5.8849999999999998,0.030675729736685753,
5.8875000000000002,0.030844014137983322,
5.8899999999999997,0.02969006821513176,
5.8925000000000001,0.027838945388793945,
5.8949999999999996,0.025386810302734375,
5.8975,0.019785365089774132,
5.9000000000000004,0.017140906304121017,
5.9024999999999999,0.01492917537689209,
5.9050000000000002,0.013294419273734093,
5.9074999999999998,0.012068351730704308,
5.9100000000000001,0.012356838211417198,
5.9124999999999996,0.013029973022639751,
5.915,0.01384735107421875,
5.9175000000000004,0.015145540237426758,
5.9199999999999999,0.015265743248164654,
5.9225000000000003,0.014977256767451763,
5.9249999999999998,0.014256040565669537,
5.9275000000000002,0.012068351730704308,
5.9299999999999997,0.010938446037471294,
5.9325000000000001,0.0099287433549761772,
5.9349999999999996,0.0091834869235754013,
5.9375,0.0083661079406738281,
5.9400000000000004,0.0081737842410802841,
5.9424999999999999,0.0080054998397827148,
5.9450000000000003,0.0077891349792480469,
5.9474999999999998,0.0071640810929238796,
5.9500000000000002,0.0069477162323892117,
5.9524999999999997,0.0069717569276690483,
5.9550000000000001,0.0073564052581787109,
5.9574999999999996,0.0093277301639318466,
5.96,0.010649959556758404,
5.9625000000000004,0.011827945709228516,
5.9649999999999999,0.012428959831595421,
5.9675000000000002,0.010145108215510845,
5.9699999999999998,0.0065871081314980984,
5.9725000000000001,0.0012020270805805922,
5.9749999999999996,-0.0058658919297158718,
5.9775,-0.023415487259626389,
5.9800000000000004,-0.032598972320556641,
5.9824999999999999,-0.041013162583112717,
5.9850000000000003,-0.047912798821926117,
5.9874999999999998,-0.054812431335449219,
5.9900000000000002,-0.054187379777431488,
5.9924999999999997,-0.050917863845825195,
5.9950000000000001,-0.045340459793806076,
5.9974999999999996,-0.029617946594953537,
6,-0.020891230553388596,90.909088134765625
6.0025000000000004,-0.012501081451773643,
6.0049999999999999,-0.0049283108673989773,
6.0075000000000003,0.0066351890563964844,
6.0099999999999998,0.010577837936580181,
6.0125000000000002,0.013558864593505859,
6.0149999999999997,0.015890797600150108,
6.0175000000000001,0.019905567169189453,
6.0199999999999996,0.02199709415435791,
6.0225,0.024232864379882812,
6.0250000000000004,0.026516716927289963,
6.0274999999999999,0.030243000015616417,
6.0300000000000002,0.031132500618696213,
6.0324999999999998,0.031108459457755089,
6.0350000000000001,0.030050676316022873,
6.0374999999999996,0.025723379105329514,
6.04,0.023343365639448166,
6.0425000000000004,0.021756689995527267,
6.0449999999999999,0.021804770454764366,
6.0475000000000003,0.03031512163579464,
6.0499999999999998,0.040099620819091797,
6.0525000000000002,0.05397101491689682,
6.0549999999999997,0.07168889045715332,
6.0575000000000001,0.11500994861125946,
6.0599999999999996,0.13739168643951416,
6.0625,0.15734533965587616,
6.0650000000000004,0.17220239341259003,
6.0674999999999999,0.17513534426689148,
6.0700000000000003,0.15775403380393982,
6.0724999999999998,0.12484252452850342,
6.0750000000000002,0.074958406388759613,
6.0774999999999997,-0.076424881815910339,
6.0800000000000001,-0.17518341541290283,
6.0824999999999996,-0.28524100780487061,
6.085,-0.40181359648704529,
6.0875000000000004,-0.62979006767272949,
6.0899999999999999,-0.7272263765335083,
6.0925000000000002,-0.8042522668838501,
6.0949999999999998,-0.85483354330062866,
6.0975000000000001,-0.86043500900268555,
6.0999999999999996,-0.81290686130523682,
6.1025,-0.73434233665466309,
6.1050000000000004,-0.62974196672439575,
6.1074999999999999,-0.37159463763237,
6.1100000000000003,-0.23528477549552917,
6.1124999999999998,-0.10565817356109619,
6.1150000000000002,0.0099287433549761772,
6.1174999999999997,0.17883758246898651,
6.1200000000000001,0.22783219814300537,
6.1224999999999996,0.25410851836204529,
6.125,0.2606235146522522,
6.1275000000000004,0.23196718096733093,
6.1299999999999999,0.2062678337097168,
6.1325000000000003,0.17866930365562439,
6.1349999999999998,0.15229682624340057,
6.1375000000000002,0.11020183563232422,
6.1399999999999997,0.095392867922782898,
6.1425000000000001,0.084093809127807617,
6.1449999999999996,0.075367093086242676,
6.1475,0.061784189194440842,
6.1500000000000004,0.055581729859113693,
6.1524999999999999,0.049379270523786545,
6.1550000000000002,0.043200850486755371,
6.1574999999999998,0.031853716820478439,
6.1600000000000001,0.027117729187011719,
6.1624999999999996,0.023175081238150597,
6.165,0.0200017299503088,
6.1675000000000004,0.015458067879080772,
6.1699999999999999,0.013703107833862305,
6.1725000000000003,0.012116432189941406,
6.1749999999999998,0.010577837936580181,
6.1775000000000002,0.0077170133590698242,
6.1799999999999997,0.0064669055864214897,
6.1825000000000001,0.0054091215133666992,
6.1849999999999996,0.004519621841609478,
6.1875,0.0030531487427651882,
6.1900000000000004,0.002259810920804739,
6.1924999999999999,0.0012501081218943,
6.1950000000000003,-0.00014424324035644531,
6.1974999999999998,-0.004399418830871582,
6.2000000000000002,-0.0073564052581787109,
6.2024999999999997,-0.010818243026733398,
6.2050000000000001,-0.014736851677298546,
6.2074999999999996,-0.023295283317565918,
6.21,-0.027670662850141525,
6.2125000000000004,-0.031901799142360687,
6.2149999999999999,-0.035892527550458908,
6.2175000000000002,-0.04291236400604248,
6.2199999999999998,-0.045941472053527832,
6.2225000000000001,-0.048706136643886566,
6.2249999999999996,-0.051350593566894531,
6.2275,-0.056615471839904785,
6.2300000000000004,-0.059500336647033691,
6.2324999999999999,-0.062673687934875488,
6.2350000000000003,-0.066159568727016449,
6.2374999999999998,-0.074213147163391113,
6.2400000000000002,-0.078732773661613464,
6.2424999999999997,-0.083516836166381836,
6.2450000000000001,-0.088493227958679199,
6.2474999999999996,-0.09875854104757309,
6.25,-0.10392725467681885,
6.2525000000000004,-0.10907193273305893,
6.2549999999999999,-0.11419256776571274,
6.2575000000000003,-0.12431363761425018,
6.2599999999999998,-0.12938618659973145,
6.2625000000000002,-0.1344587504863739,
6.2649999999999997,-0.13955533504486084,
6.2675000000000001,-0.1497485339641571,
6.2699999999999996,-0.1547008752822876,
6.2725,-0.15950898826122284,
6.2750000000000004,-0.16405265033245087,
6.2774999999999999,-0.1722264289855957,
6.2800000000000002,-0.17578443884849548,
6.2824999999999998,-0.17900586128234863,
6.2850000000000001,-0.18186669051647186,
6.2874999999999996,-0.18662671744823456,
6.29,-0.18854996562004089,
6.2925000000000004,-0.19018471240997314,
6.2949999999999999,-0.19150695204734802,
6.2975000000000003,-0.19304554164409637,
6.2999999999999998,-0.19314169883728027,
6.3025000000000002,-0.19261281192302704,
6.3049999999999997,-0.19136270880699158,
6.3075000000000001,-0.1862180233001709,
6.3099999999999996,-0.18213114142417908,
6.3125,-0.1769864559173584,
6.3150000000000004,-0.17078399658203125,
6.3174999999999999,-0.15571057796478271,
6.3200000000000003,-0.14722427725791931,
6.3224999999999998,-0.13835331797599792,
6.3250000000000002,-0.12931406497955322,
6.3274999999999997,-0.11118750274181366,
6.3300000000000001,-0.10217230021953583,
6.3324999999999996,-0.093109011650085449,
6.335,-0.083901487290859222,
6.3375000000000004,-0.064813300967216492,
6.3399999999999999,-0.054884552955627441,
6.3425000000000002,-0.044763486832380295,
6.3449999999999998,-0.034618377685546875,
6.3475000000000001,-0.015097459778189659,
6.3499999999999996,-0.0061784191057085991,
6.3525,0.0018992027034983039,
6.3550000000000004,0.009015202522277832,
6.3574999999999999,0.020097892731428146,
6.3600000000000003,0.024208825081586838,
6.3624999999999998,0.027502378448843956,
6.3650000000000002,0.030194919556379318,
6.3674999999999997,0.03447413444519043,
6.3700000000000001,0.036349296569824219,
6.3724999999999996,0.038200419396162033,
6.375,0.040027499198913574,
6.3775000000000004,0.043489336967468262,
6.3799999999999999,0.044931769371032715,
6.3825000000000003,0.046109758317470551,
6.3849999999999998,0.046903096139431,
6.3875000000000002,0.047504108399152756,
6.3899999999999997,0.047407947480678558,
6.3925000000000001,0.047263704240322113,
6.3949999999999996,0.04719158262014389,
6.3975,0.047672390937805176,
6.4000000000000004,0.048369567841291428,
6.4024999999999999,0.049307148903608322,
6.4050000000000002,0.050388973206281662,
6.4074999999999998,0.052336256951093674,
6.4100000000000001,0.05288919061422348,
6.4124999999999996,0.053009390830993652,
6.415,0.05260070413351059,
6.4175000000000004,0.05043705552816391,
6.4199999999999999,0.048874419182538986,
6.4225000000000003,0.04723966121673584,
6.4249999999999998,0.045701067894697189,
6.4275000000000002,0.04353741928935051,
6.4299999999999997,0.043032567948102951,
6.4325000000000001,0.042936407029628754,
6.4349999999999996,0.043128728866577148,
6.4375,0.043753784149885178,
6.4400000000000004,0.043849945068359375,
6.4424999999999999,0.04365762323141098,
6.4450000000000003,0.043104689568281174,
6.4474999999999998,0.041061244904994965,
6.4500000000000002,0.039787095040082932,
6.4524999999999997,0.038512945175170898,
6.4550000000000001,0.037383042275905609,
6.4574999999999996,0.035796366631984711,
6.46,0.035363636910915375,
6.4625000000000004,0.035027068108320236,
6.4649999999999999,0.034690499305725098,
6.4675000000000002,0.033632718026638031,
6.4699999999999998,0.032743215560913086,
6.4725000000000001,0.031589269638061523,
6.4749999999999996,0.030267041176557541,
6.4775,0.027358135208487511,
6.4800000000000004,0.026011865586042404,
6.4824999999999999,0.024881958961486816,
6.4850000000000003,0.024040540680289268,
6.4874999999999998,0.023463567718863487,
6.4900000000000002,0.023752054199576378,
6.4924999999999997,0.024377107620239258,
6.4950000000000001,0.025266608223319054,
6.4974999999999996,0.027502378448843956,
6.5,0.028536122292280197,
6.5025000000000004,0.029329460114240646,
6.5049999999999999,0.02969006821513176,
6.5075000000000003,0.028632283210754395,
6.5099999999999998,0.027117729187011719,
6.5125000000000002,0.024978121742606163,
6.5149999999999997,0.022333662956953049,
6.5175000000000001,0.01646777056157589,
6.5199999999999996,0.013799270614981651,
6.5225,0.01168370246887207,
6.5250000000000004,0.010337432846426964,
6.5274999999999999,0.010481676086783409,
6.5300000000000002,0.011924108490347862,
6.5324999999999998,0.014063715934753418,
6.5350000000000001,0.016660094261169434,
6.5374999999999996,0.02182881161570549,
6.54,0.023824175819754601,
6.5425000000000004,0.025146406143903732,
6.5449999999999999,0.025723379105329514,
6.5475000000000003,0.024930041283369064,
6.5499999999999998,0.023920338600873947,
6.5525000000000002,0.022838514298200607,
6.5549999999999997,0.021876892074942589,
6.5575000000000001,0.020867189392447472,
6.5599999999999996,0.020867189392447472,
6.5625,0.021155675873160362,
6.5650000000000004,0.021588405594229698,
6.5674999999999999,0.022357702255249023,
6.5700000000000003,0.022477906197309494,
6.5724999999999998,0.022357702255249023,
6.5750000000000002,0.021420121192932129,
6.5774999999999997,0.020650824531912804,
6.5800000000000001,0.019737284630537033,
6.5824999999999996,0.018727581948041916,
6.585,0.017573636025190353,
6.5875000000000004,0.014881094917654991,
6.5899999999999999,0.013294419273734093,
6.5925000000000002,0.011539459228515625,
6.5949999999999998,0.0096162166446447372,
6.5975000000000001,0.0056014461442828178,
6.5999999999999996,0.0037022433243691921,
6.6025,0.002091526985168457,
6.6050000000000004,0.00086545944213867188,
6.6074999999999999,0.00014424324035644531,
6.6100000000000003,0.00074525678064674139,
6.6124999999999998,0.0018992027034983039,
6.6150000000000002,0.0034377973061054945,
6.6174999999999997,0.0065390272065997124,
6.6200000000000001,0.0074044866487383842,
6.6224999999999996,0.0073083243332803249,
6.625,0.0031973919831216335,
6.6275000000000004,-0.0010577838402241468,
6.6299999999999999,-0.006707310676574707,
6.6325000000000003,-0.013438662514090538,
6.6349999999999998,-0.020891230553388596,
6.6375000000000002,-0.035964649170637131,
6.6399999999999997,-0.04257579892873764,
6.6425000000000001,-0.04798492044210434,
6.6449999999999996,-0.051831405609846115,
6.6475,-0.054043136537075043,
6.6500000000000004,-0.052408378571271896,
6.6524999999999999,-0.049090784043073654,
6.6550000000000002,-0.044354796409606934,
6.6574999999999998,-0.032070081681013107,
6.6600000000000001,-0.02524256706237793,
6.6624999999999996,-0.018415054306387901,
6.665,-0.011924108490347862,
6.6675000000000004,-0.00052889192011207342,
6.6699999999999999,0.0042070946656167507,
6.6725000000000003,0.0083901491016149521,
6.6749999999999998,0.012068351730704308,
6.6775000000000002,0.018463134765625,
6.6799999999999997,0.021227797493338585,
6.6825000000000001,0.023703973740339279,
6.6849999999999996,0.02569933794438839,
6.6875,0.027502378448843956,
6.6900000000000004,0.026925405487418175,
6.6924999999999999,0.025290649384260178,
6.6950000000000003,0.019593041390180588,
6.6974999999999998,0.016563933342695236,
6.7000000000000002,0.014448365196585655,
6.7024999999999997,0.014280080795288086,
6.7050000000000001,0.017068784683942795,
6.7074999999999996,0.034930907189846039,
6.71,0.050869785249233246,
6.7125000000000004,0.071208082139492035,
6.7149999999999999,0.095008216798305511,
6.7175000000000002,0.14626264572143555,
6.7199999999999998,0.16900500655174255,
6.7225000000000001,0.18616995215415955,
6.7249999999999996,0.19205987453460693,
6.7275,0.1753997802734375,
6.7300000000000004,0.14287292957305908,
6.7324999999999999,0.093133054673671722,
6.7350000000000003,0.025819540023803711,
6.7374999999999998,-0.15782615542411804,
6.7400000000000002,-0.26913386583328247,
6.7424999999999997,-0.38801431655883789,
6.7450000000000001,-0.62510216236114502,
6.7474999999999996,-0.72979867458343506,
6.75,-0.81593596935272217,
6.7525000000000004,-0.87707102298736572,
6.7549999999999999,-0.90582352876663208,
6.7575000000000003,-0.86928188800811768,
6.7599999999999998,-0.80006921291351318,
6.7625000000000002,-0.70236843824386597,
6.7649999999999997,-0.58252632617950439,
6.7675000000000001,-0.3091132640838623,
6.7699999999999996,-0.17321209609508514,
6.7725,-0.048802297562360764,
6.7750000000000004,0.057769417762756348,
6.7774999999999999,0.20227710902690887,
6.7800000000000002,0.23848216235637665,
6.7824999999999998,0.25300264358520508,
6.7850000000000001,0.23276051878929138,
6.7874999999999996,0.20749390125274658,
6.79,0.17826060950756073,
6.7925000000000004,0.14893114566802979,
6.7949999999999999,0.12227018922567368,
6.7975000000000003,0.082843706011772156,
6.7999999999999998,0.070631109178066254,
6.8025000000000002,0.062697730958461761,
6.8049999999999997,0.057937704026699066,
6.8075000000000001,0.053682528436183929,
6.8099999999999996,0.052312217652797699,
6.8125,0.050629377365112305,
6.8150000000000004,0.048345528542995453,
6.8174999999999999,0.041830539703369141,
6.8200000000000003,0.037815771996974945,
6.8224999999999998,0.033560596406459808,
6.8250000000000002,0.029305418953299522,
6.8274999999999997,0.021347999572753906,
6.8300000000000001,0.017862122505903244,
6.8324999999999996,0.014736851677298546,
6.835,0.011972188949584961,
6.8375000000000004,0.007091959472745657,
6.8399999999999999,0.004832148551940918,
6.8425000000000002,0.0025723378639668226,
6.8449999999999998,0.00024040541029535234,
6.8475000000000001,-0.0046398243866860867,
6.8499999999999996,-0.007140040397644043,
6.8525,-0.0095921754837036133,
6.8550000000000004,-0.011972188949584961,
6.8574999999999999,-0.01629948616027832,
6.8600000000000003,-0.018246769905090332,
6.8624999999999998,-0.020097892731428146,
6.8650000000000002,-0.021876892074942589,
6.8674999999999997,-0.025410851463675499,
6.8700000000000001,-0.027237933129072189,
6.8724999999999996,-0.029209256172180176,
6.875,-0.031348865479230881,
6.8775000000000004,-0.036469500511884689,
6.8799999999999999,-0.039594769477844238,
6.8825000000000003,-0.043152771890163422,
6.8849999999999998,-0.047143500298261642,
6.8875000000000002,-0.056254863739013672,
6.8899999999999997,-0.06108701229095459,
6.8925000000000001,-0.065871082246303558,
6.8949999999999996,-0.074645876884460449,
6.8975,-0.078420244157314301,
6.9000000000000004,-0.081761881709098816,
6.9024999999999999,-0.084742903709411621,
6.9050000000000002,-0.090440511703491211,
6.9074999999999998,-0.093589827418327332,
6.9100000000000001,-0.097243987023830414,
6.9124999999999996,-0.1015472412109375,
6.915,-0.10659575462341309,
6.9175000000000004,-0.11900067329406738,
6.9199999999999999,-0.12623688578605652,
6.9225000000000003,-0.13395389914512634,
6.9249999999999998,-0.14200747013092041,
6.9275000000000002,-0.1584271639585495,
6.9299999999999997,-0.16643266379833221,
6.9325000000000001,-0.17410159111022949,
6.9349999999999996,-0.18124163150787354,
6.9375,-0.19333402812480927,
6.9400000000000004,-0.19792577624320984,
6.9424999999999999,-0.2014116495847702,
6.9450000000000003,-0.20369550585746765,
6.9474999999999998,-0.204585000872612,
6.9500000000000002,-0.20345509052276611,
6.9524999999999997,-0.2015078067779541,
6.9550000000000001,-0.1990797221660614,
6.9574999999999996,-0.19381484389305115,
6.96,-0.19148290157318115,
6.9625000000000004,-0.18946349620819092,
6.9649999999999999,-0.18600165843963623,
6.9675000000000002,-0.18405437469482422,
6.9699999999999998,-0.18153011798858643,
6.9725000000000001,-0.17804424464702606,
6.9749999999999996,-0.17333230376243591,
6.9775,-0.15965323150157928,
6.9800000000000004,-0.1507822722196579,
6.9824999999999999,-0.14090161025524139,
6.9850000000000003,-0.13032376766204834,
6.9874999999999998,-0.10866324603557587,
6.9900000000000002,-0.098205611109733582,
6.9924999999999997,-0.088348984718322754,
6.9950000000000001,-0.079093381762504578,
6.9974999999999996,-0.062313079833984375,
7,-0.054523944854736328,93.02325439453125
7.0025000000000004,-0.046927135437726974,
7.0049999999999999,-0.031829677522182465,
7.0075000000000003,-0.024208825081586838,
7.0099999999999998,-0.016612013801932335,
7.0125000000000002,-0.009135405533015728,
7.0149999999999997,-0.0018992027034983039,
7.0175000000000001,0.011130770668387413,
7.0199999999999996,0.016708176583051682,
7.0225,0.021564364433288574,
7.0250000000000004,0.029305418953299522,
7.0274999999999999,0.032358568161725998,
7.0300000000000002,0.035051107406616211,
7.0324999999999998,0.037479203194379807,
7.0350000000000001,0.039763055741786957,
7.0374999999999996,0.044138431549072266,
7.04,0.046254001557826996,
7.0425000000000004,0.04832148551940918,
7.0449999999999999,0.050268769264221191,
7.0475000000000003,0.053658485412597656,
7.0499999999999998,0.05505283921957016,
7.0525000000000002,0.056182742118835449,
7.0549999999999997,0.057048201560974121,
7.0575000000000001,0.057721339166164398,
7.0599999999999996,0.057480931282043457,
7.0625,0.056831836700439453,
7.0650000000000004,0.054451823234558105,
7.0674999999999999,0.05288919061422348,
7.0700000000000003,0.051230393350124359,
7.0724999999999998,0.049619674682617188,
7.0750000000000002,0.048177242279052734,
7.0774999999999997,0.046205919235944748,
7.0800000000000001,0.045725107192993164,
7.0824999999999996,0.045532785356044769,
7.085,0.045580863952636719,
7.0875000000000004,0.045917432755231857,
7.0899999999999999,0.046085715293884277,
7.0925000000000002,0.046205919235944748,
7.0949999999999998,0.046278040856122971,
7.0975000000000001,0.046494405716657639,
7.0999999999999996,0.046686731278896332,
7.1025,0.046975217759609222,
7.1050000000000004,0.047335825860500336,
7.1074999999999999,0.048081081360578537,
7.1100000000000003,0.048249363899230957,
7.1124999999999998,0.04815320298075676,
7.1150000000000002,0.047672390937805176,
7.1174999999999997,0.045364499092102051,
7.1200000000000001,0.043561458587646484,
7.1224999999999996,0.041469931602478027,
7.125,0.039186082780361176,
7.1275000000000004,0.034858785569667816,
7.1299999999999999,0.033175945281982422,
7.1325000000000003,0.031997960060834885,
7.1349999999999998,0.031396947801113129,
7.1375000000000002,0.031757555902004242,
7.1399999999999997,0.032526850700378418,
7.1425000000000001,0.033488474786281586,
7.1449999999999996,0.035243432968854904,
7.1475,0.035700201988220215,
7.1500000000000004,0.035724245011806488,
7.1524999999999999,0.035315554589033127,
7.1550000000000002,0.03442605584859848,
7.1574999999999998,0.031661391258239746,
7.1600000000000001,0.030098756775259972,
7.1624999999999996,0.028680365532636642,
7.165,0.027574500069022179,
7.1675000000000004,0.026997527107596397,
7.1699999999999999,0.0276947021484375,
7.1725000000000003,0.028992891311645508,
7.1749999999999998,0.030795931816101074,
7.1775000000000002,0.034906864166259766,
7.1799999999999997,0.036637783050537109,
7.1825000000000001,0.037815771996974945,
7.1849999999999996,0.038248501718044281,
7.1875,0.036782026290893555,
7.1900000000000004,0.035075150430202484,
7.1924999999999999,0.03305574506521225,
7.1950000000000003,0.030964216217398643,
7.1974999999999998,0.0276947021484375,
7.2000000000000002,0.026925405487418175,
7.2024999999999997,0.026829242706298828,
7.2050000000000001,0.027358135208487511,
7.2074999999999996,0.029882391914725304,
7.21,0.031517148017883301,
7.2125000000000004,0.033127866685390472,
7.2149999999999999,0.034522216767072678,
7.2175000000000002,0.036108892410993576,
7.2199999999999998,0.036108892410993576,
7.2225000000000001,0.035531919449567795,
7.2249999999999996,0.034402012825012207,
7.2275,0.030819972977042198,
7.2300000000000004,0.02860824391245842,
7.2324999999999999,0.026372473686933517,
7.2350000000000003,0.024256905540823936,
7.2374999999999998,0.021035473793745041,
7.2400000000000002,0.020170014351606369,
7.2424999999999997,0.019857486709952354,
7.2450000000000001,0.020049810409545898,
7.2474999999999996,0.021588405594229698,
7.25,0.022550027817487717,
7.2525000000000004,0.023367404937744141,
7.2549999999999999,0.023776095360517502,
7.2575000000000003,0.022862553596496582,
7.2599999999999998,0.021347999572753906,
7.2625000000000002,0.019160311669111252,
7.2649999999999997,0.013438662514090538,
7.2675000000000001,0.010361473076045513,
7.2699999999999996,0.0075246891938149929,
7.2725,0.0051446757279336452,
7.2750000000000004,0.0034377973061054945,
7.2774999999999999,0.0023800134658813477,
7.2800000000000002,0.0029089055024087429,
7.2824999999999998,0.0039426488801836967,
7.2850000000000001,0.0052167973481118679,
7.2874999999999996,0.0072121620178222656,
7.29,0.0073083243332803249,
7.2925000000000004,0.0064188241958618164,
7.2949999999999999,0.0011058648815378547,
7.2975000000000003,-0.0033656756859272718,
7.2999999999999998,-0.0088469190523028374,
7.3025000000000002,-0.015145540237426758,
7.3049999999999997,-0.02182881161570549,
7.3075000000000001,-0.034738581627607346,
7.3099999999999996,-0.04012366384267807,
7.3125,-0.044330757111310959,
7.3150000000000004,-0.04707137867808342,
7.3174999999999999,-0.047888755798339844,
7.3200000000000003,-0.046061675995588303,
7.3224999999999998,-0.042936407029628754,
7.3250000000000002,-0.038729310035705566,
7.3274999999999997,-0.027935108169913292,
7.3300000000000001,-0.021756689995527267,
7.3324999999999996,-0.01521766185760498,
7.335,-0.0085343923419713974,
7.3375000000000004,0.0048081083223223686,
7.3399999999999999,0.011130770668387413,
7.3425000000000002,0.017044743523001671,
7.3449999999999998,0.022333662956953049,
7.3475000000000001,0.030507445335388184,
7.3499999999999996,0.033151905983686447,
7.3525,0.034666460007429123,
7.3550000000000004,0.035075150430202484,
7.3574999999999999,0.032478772103786469,
7.3600000000000003,0.02969006821513176,
7.3624999999999998,0.026204189285635948,
7.3650000000000002,0.022429823875427246,
7.3674999999999997,0.016371607780456543,
7.3700000000000001,0.015602311119437218,
7.3724999999999996,0.017453432083129883,
7.375,0.022814473137259483,
7.3775000000000004,0.0461578369140625,
7.3799999999999999,0.064428649842739105,
7.3825000000000003,0.086449787020683289,
7.3849999999999998,0.13667047023773193,
7.3875000000000002,0.16097545623779297,
7.3899999999999997,0.1813618391752243,
7.3925000000000001,0.19506494700908661,
7.3949999999999996,0.19083380699157715,
7.3975,0.1677548885345459,
7.4000000000000004,0.12801587581634521,
7.4024999999999999,0.070558987557888031,
7.4050000000000002,-0.0046398243866860867,
7.4074999999999998,-0.20275792479515076,
7.4100000000000001,-0.31957089900970459,
7.4124999999999996,-0.44193726778030396,
7.415,-0.56375068426132202,
7.4175000000000004,-0.77785575389862061,
7.4199999999999999,-0.85596346855163574,
7.4225000000000003,-0.90640050172805786,
7.4249999999999998,-0.92464727163314819,
7.4275000000000002,-0.8574059009552002,
7.4299999999999997,-0.77463430166244507,
7.4325000000000001,-0.66508156061172485,
7.4349999999999996,-0.53591173887252808,
7.4375,-0.25353154540061951,
7.4400000000000004,-0.11820733547210693,
7.4424999999999999,0.0026925406418740749,
7.4450000000000003,0.10332624614238739,
7.4474999999999998,0.23199121654033661,
7.4500000000000002,0.25990229845046997,
7.4524999999999997,0.26682597398757935,
7.4550000000000001,0.25694531202316284,
7.4574999999999996,0.20629188418388367,
7.46,0.17482280731201172,
7.4625000000000004,0.14429132640361786,
7.4649999999999999,0.11722167581319809,
7.4675000000000002,0.078155800700187683,
7.4699999999999998,0.066327854990959167,
7.4725000000000001,0.058731041848659515,
7.4749999999999996,0.054259501397609711,
7.4775,0.050413012504577637,
7.4800000000000004,0.049259066581726074,
7.4824999999999999,0.047792594879865646,
7.4850000000000003,0.04582127183675766,
7.4874999999999998,0.040243864059448242,
7.4900000000000002,0.036950312554836273,
7.4924999999999997,0.033608675003051758,
7.4950000000000001,0.030459364876151085,
7.4974999999999996,0.025146406143903732,
7.5,0.023054879158735275,
7.5025000000000004,0.021275877952575684,
7.5049999999999999,0.018078487366437912,
7.5075000000000003,0.016347568482160568,
7.5099999999999998,0.014352202415466309,
7.5125000000000002,0.012044310569763184,
7.5149999999999997,0.0093277301639318466,
7.5175000000000001,0.0029810271225869656,
7.5199999999999996,-0.00043272972106933594,
7.5225,-0.0037984054069966078,
7.5250000000000004,-0.006923675537109375,
7.5274999999999999,-0.011827945709228516,
7.5300000000000002,-0.013462702743709087,
7.5324999999999998,-0.014568567276000977,
7.5350000000000001,-0.015289783477783203,
7.5374999999999996,-0.016563933342695236,
7.54,-0.017669796943664551,
7.5425000000000004,-0.019472837448120117,
7.5449999999999999,-0.022093256935477257,
7.5475000000000003,-0.030122797936201096,
7.5499999999999998,-0.035291515290737152,
7.5525000000000002,-0.040917001664638519,
7.5549999999999997,-0.046662688255310059,
7.5575000000000001,-0.057336688041687012,
7.5599999999999996,-0.061808228492736816,
7.5625,-0.065558552742004395,
7.5650000000000004,-0.068683825433254242,
7.5674999999999999,-0.073684260249137878,
7.5700000000000003,-0.076112352311611176,
7.5724999999999998,-0.07887701690196991,
7.5750000000000002,-0.082218647003173828,
7.5774999999999997,-0.091305971145629883,
7.5800000000000001,-0.097147822380065918,
7.5824999999999996,-0.10373493283987045,
7.585,-0.1108749732375145,
7.5875000000000004,-0.12575607001781464,
7.5899999999999999,-0.13292014598846436,
7.5925000000000002,-0.13950726389884949,
7.5949999999999998,-0.15022933483123779,
7.5975000000000001,-0.15414795279502869,
7.5999999999999996,-0.15715301036834717,
7.6025,-0.15938878059387207,
7.6050000000000004,-0.16111969947814941,
7.6074999999999999,-0.16429305076599121,
7.6100000000000003,-0.16636054217815399,
7.6124999999999998,-0.16912519931793213,
7.6150000000000002,-0.17273128032684326,
7.6174999999999997,-0.18232345581054688,
7.6200000000000001,-0.18782874941825867,
7.6224999999999996,-0.19328594207763672,
7.625,-0.19816617667675018,
7.6275000000000004,-0.20427247881889343,
7.6299999999999999,-0.20472924411296844,
7.6325000000000003,-0.20321469008922577,
7.6349999999999998,-0.19477646052837372,
7.6375000000000002,-0.1884537935256958,
7.6399999999999997,-0.18126568198204041,
7.6425000000000001,-0.1736207902431488,
7.6449999999999996,-0.16587972640991211,
7.6475,-0.15075823664665222,
7.6500000000000004,-0.14340183138847351,
7.6524999999999999,-0.13602137565612793,
7.6550000000000002,-0.1284005343914032,
7.6574999999999998,-0.11195679754018784,
7.6600000000000001,-0.10296563804149628,
7.6624999999999996,-0.093541741371154785,
7.665,-0.083805322647094727,
7.6675000000000004,-0.063923798501491547,
7.6699999999999999,-0.054091215133666992,
7.6725000000000003,-0.044450961053371429,
7.6749999999999998,-0.035075150430202484,
7.6775000000000002,-0.017140906304121017,
7.6799999999999997,-0.0085824728012084961,
7.6825000000000001,-0.00033656758023425937,
7.6849999999999996,0.0075727701187133789,
7.6875,0.021973054856061935,
7.6900000000000004,0.028247635811567307,
7.6924999999999999,0.033801000565290451,
7.6950000000000003,0.038561027497053146,
7.6974999999999998,0.045773189514875412,
7.7000000000000002,0.048393607139587402,
7.7024999999999997,0.050533216446638107,
7.7050000000000001,0.052360296249389648,
7.7074999999999996,0.055677890777587891,
7.71,0.057336688041687012,
7.7125000000000004,0.059019528329372406,
7.7149999999999999,0.060654282569885254,
7.7175000000000002,0.06320258229970932,
7.7199999999999998,0.063851676881313324,
7.7225000000000001,0.063923798501491547,
7.7249999999999996,0.063394904136657715,
7.7275,0.060870647430419922,
